time,port_net
2020-01-01,0.0
2020-01-02,0.0
2020-01-03,0.0
2020-01-04,0.0
2020-01-05,0.0
2020-01-06,0.0
2020-01-07,0.0
2020-01-08,0.0
2020-01-09,0.0
2020-01-10,0.0
2020-01-11,0.0
2020-01-12,0.0
2020-01-13,0.0
2020-01-14,0.0
2020-01-15,0.0
2020-01-16,0.0
2020-01-17,0.0
2020-01-18,0.0
2020-01-19,0.0
2020-01-20,0.0
2020-01-21,0.0
2020-01-22,0.0
2020-01-23,0.0
2020-01-24,0.0
2020-01-25,0.0
2020-01-26,0.0
2020-01-27,0.0
2020-01-28,0.0
2020-01-29,0.0
2020-01-30,0.0
2020-01-31,0.0
2020-02-01,0.0
2020-02-02,0.0
2020-02-03,0.0
2020-02-04,0.0
2020-02-05,0.0
2020-02-06,0.0
2020-02-07,0.0
2020-02-08,0.0
2020-02-09,0.0
2020-02-10,0.0
2020-02-11,0.0
2020-02-12,0.0
2020-02-13,0.0
2020-02-14,0.0
2020-02-15,0.0
2020-02-16,0.0
2020-02-17,0.0
2020-02-18,0.0
2020-02-19,0.0
2020-02-20,0.0
2020-02-21,0.0
2020-02-22,0.0
2020-02-23,0.0
2020-02-24,0.0
2020-02-25,0.0
2020-02-26,0.0
2020-02-27,0.0
2020-02-28,0.0
2020-02-29,0.0
2020-03-01,0.0
2020-03-02,0.0
2020-03-03,0.0
2020-03-04,0.0
2020-03-05,0.0
2020-03-06,0.0
2020-03-07,0.0
2020-03-08,0.0
2020-03-09,0.0
2020-03-10,0.0
2020-03-11,0.0
2020-03-12,0.0
2020-03-13,0.0
2020-03-14,0.0
2020-03-15,0.0
2020-03-16,0.0
2020-03-17,0.0
2020-03-18,0.0
2020-03-19,0.0
2020-03-20,0.0
2020-03-21,0.0
2020-03-22,0.0
2020-03-23,0.0
2020-03-24,0.0
2020-03-25,0.0
2020-03-26,0.0
2020-03-27,0.0
2020-03-28,0.0
2020-03-29,0.0
2020-03-30,0.0
2020-03-31,0.0
2020-04-01,0.0
2020-04-02,0.0
2020-04-03,0.0
2020-04-04,0.0
2020-04-05,0.0
2020-04-06,0.0
2020-04-07,0.0
2020-04-08,0.0
2020-04-09,0.0
2020-04-10,0.0
2020-04-11,0.0
2020-04-12,0.0
2020-04-13,0.0
2020-04-14,0.0
2020-04-15,0.0
2020-04-16,0.0
2020-04-17,0.0
2020-04-18,0.0
2020-04-19,0.0
2020-04-20,0.0
2020-04-21,0.0
2020-04-22,0.0
2020-04-23,0.0
2020-04-24,0.0
2020-04-25,0.0
2020-04-26,0.0
2020-04-27,0.0
2020-04-28,0.0
2020-04-29,0.0
2020-04-30,0.0
2020-05-01,0.0
2020-05-02,0.0
2020-05-03,0.0
2020-05-04,0.0
2020-05-05,0.0
2020-05-06,0.0
2020-05-07,0.0
2020-05-08,0.0
2020-05-09,0.0
2020-05-10,0.0
2020-05-11,0.0
2020-05-12,0.0
2020-05-13,0.0
2020-05-14,0.0
2020-05-15,0.0
2020-05-16,0.0
2020-05-17,0.0
2020-05-18,0.0
2020-05-19,0.0
2020-05-20,0.0
2020-05-21,0.0
2020-05-22,0.0
2020-05-23,0.0
2020-05-24,0.0
2020-05-25,0.0
2020-05-26,0.0
2020-05-27,0.0
2020-05-28,0.0
2020-05-29,0.0
2020-05-30,0.0
2020-05-31,0.0
2020-06-01,0.0
2020-06-02,0.0
2020-06-03,0.0
2020-06-04,0.0
2020-06-05,0.0
2020-06-06,0.0
2020-06-07,0.0
2020-06-08,0.0
2020-06-09,0.0
2020-06-10,0.0
2020-06-11,0.0
2020-06-12,0.0
2020-06-13,0.0
2020-06-14,0.0
2020-06-15,0.0
2020-06-16,0.0
2020-06-17,0.0
2020-06-18,0.0
2020-06-19,0.0
2020-06-20,0.0
2020-06-21,0.0
2020-06-22,0.0
2020-06-23,0.0
2020-06-24,0.0
2020-06-25,0.0
2020-06-26,0.0
2020-06-27,0.0
2020-06-28,0.0
2020-06-29,0.0
2020-06-30,0.0
2020-07-01,0.0
2020-07-02,0.0
2020-07-03,0.0
2020-07-04,0.0
2020-07-05,0.0
2020-07-06,0.0
2020-07-07,0.0
2020-07-08,0.0
2020-07-09,0.0
2020-07-10,0.0
2020-07-11,0.0
2020-07-12,0.0
2020-07-13,0.0
2020-07-14,0.0
2020-07-15,0.0
2020-07-16,0.0
2020-07-17,0.0
2020-07-18,0.0
2020-07-19,0.0
2020-07-20,0.0
2020-07-21,0.0
2020-07-22,0.0
2020-07-23,0.0
2020-07-24,0.0
2020-07-25,0.0
2020-07-26,0.0
2020-07-27,0.0
2020-07-28,0.0
2020-07-29,0.0
2020-07-30,0.0
2020-07-31,0.0
2020-08-01,0.0
2020-08-02,0.0
2020-08-03,0.0
2020-08-04,0.0
2020-08-05,0.0
2020-08-06,0.0
2020-08-07,0.0
2020-08-08,0.0
2020-08-09,0.0
2020-08-10,0.0
2020-08-11,0.0
2020-08-12,0.0
2020-08-13,0.0
2020-08-14,0.0
2020-08-15,0.0
2020-08-16,0.0
2020-08-17,0.0
2020-08-18,0.0
2020-08-19,0.0
2020-08-20,0.0
2020-08-21,0.0
2020-08-22,0.0
2020-08-23,0.0
2020-08-24,0.0
2020-08-25,0.0
2020-08-26,0.0
2020-08-27,0.0
2020-08-28,0.0
2020-08-29,0.0
2020-08-30,0.0
2020-08-31,0.0
2020-09-01,0.0
2020-09-02,0.0
2020-09-03,0.0
2020-09-04,0.0
2020-09-05,0.0
2020-09-06,0.0
2020-09-07,0.0
2020-09-08,0.0
2020-09-09,-0.0004465
2020-09-10,0.003692006104342098
2020-09-11,0.0008836663036986353
2020-09-12,0.0003713758727236475
2020-09-13,-0.001504306906699451
2020-09-14,0.003292978516151978
2020-09-15,0.00046578966479909764
2020-09-16,-7.521906541847833e-06
2020-09-17,5.1235208881474996e-05
2020-09-18,-0.0003399775111505113
2020-09-19,0.0013049359467416145
2020-09-20,-0.0014328218704022814
2020-09-21,-0.004444128883276742
2020-09-22,-0.00033256453688743694
2020-09-23,-0.0035539230609834094
2020-09-24,0.0035936753537559704
2020-09-25,-0.0008170768999706431
2020-09-26,0.00033396315890837306
2020-09-27,0.0003416552057014429
2020-09-28,-0.00040012675672803836
2020-09-29,0.002224658563510825
2020-09-30,-0.001957757936005015
2020-10-01,-0.0011953186406217676
2020-10-02,-0.0009622960382410224
2020-10-03,-0.0002244289970208535
2020-10-04,0.0015547567385066777
2020-10-05,0.0012220767561684001
2020-10-06,-0.0011239937034461193
2020-10-07,0.0005873739607964041
2020-10-08,0.0017333225247436598
2020-10-09,0.0014419411294133429
2020-10-10,0.0022320677167321002
2020-10-11,0.0006033293738079005
2020-10-12,0.00090462711454702
2020-10-13,-0.0011807643949504885
2020-10-14,-0.0005355701290004606
2020-10-15,0.0016095114720030984
2020-10-16,-0.0020869272400632086
2020-10-17,0.00035509148531438496
2020-10-18,0.00116566134822764
2020-10-19,0.002876801815221126
2020-10-20,0.0017849766972423875
2020-10-21,0.007101875955166186
2020-10-22,0.00113843040816081
2020-10-23,0.0008420096997618253
2020-10-24,0.0013186733272112284
2020-10-25,-0.0006745679234643008
2020-10-26,3.959460043417577e-05
2020-10-27,0.0041043498155083685
2020-10-28,-0.0026881514775780593
2020-10-29,0.00038005912296624485
2020-10-30,-0.00017271549145092937
2020-10-31,0.0017485297630978726
2020-11-01,0.00010172334501684166
2020-11-02,-0.0020715272151545006
2020-11-03,0.004007057300208694
2020-11-04,0.0017345258697695186
2020-11-05,0.011061589496202763
2020-11-06,0.0008151747218000458
2020-11-07,-0.004860643122395036
2020-11-08,0.004331930093409975
2020-11-09,-0.0037134209857194885
2020-11-10,-0.0010660773535205645
2020-11-11,0.0024754368876738347
2020-11-12,0.00532186928079739
2020-11-13,0.0003004592718100982
2020-11-14,-0.0015280148318325027
2020-11-15,-0.000655897890100828
2020-11-16,0.004502229822121511
2020-11-17,0.005772937566236569
2020-11-18,0.00038974838767197117
2020-11-19,0.0002961042427146914
2020-11-20,0.004569020893884882
2020-11-21,0.00014729714568837427
2020-11-22,-0.0014081995056096082
2020-11-23,-0.0009718196589041428
2020-11-24,0.004250008063287152
2020-11-25,-0.001973657794114088
2020-11-26,-0.008562507364097638
2020-11-27,-0.000182413599350046
2020-11-28,0.003346952004825124
2020-11-29,0.0028136522708253568
2020-11-30,0.007789657080007316
2020-12-01,-0.00387680710456966
2020-12-02,0.0021680858582879404
2020-12-03,0.0016786463466060167
2020-12-04,-0.004197267318500189
2020-12-05,0.002557446168826976
2020-12-06,0.0012379171672825431
2020-12-07,-0.0012080211804980125
2020-12-08,-0.004623691816390101
2020-12-09,0.001234678286801179
2020-12-10,3.1568588750870295e-05
2020-12-11,-0.0009137221626386856
2020-12-12,0.004335153169716333
2020-12-13,0.001803219025828004
2020-12-14,0.00014734060970504533
2020-12-15,0.0009911485275680067
2020-12-16,0.010120118493259767
2020-12-17,0.007723622210653172
2020-12-18,0.0011432176978011935
2020-12-19,0.0031211494425721596
2020-12-20,-0.0020094174406804256
2020-12-21,-0.0035211601838146768
2020-12-22,0.004097625350414109
2020-12-23,-0.0016680755600597336
2020-12-24,0.0021856008707466525
2020-12-25,0.004063501404630369
2020-12-26,0.0071722198884435874
2020-12-27,-0.0004238671570190762
2020-12-28,0.002858404149702229
2020-12-29,0.0016766151627932786
2020-12-30,0.006833574412401411
2020-12-31,-0.0003020820528337341
2021-01-01,0.0014255678802064318
2021-01-02,0.009548318927250632
2021-01-03,0.0029441777626629667
2021-01-04,-0.003377442492919145
2021-01-05,0.007470552213127264
2021-01-06,0.008794015744388177
2021-01-07,0.006077421918031667
2021-01-08,0.002525062265960057
2021-01-09,-0.000907799752412092
2021-01-10,-0.005784536589608901
2021-01-11,-0.0077215319312915085
2021-01-12,-0.0031760455231263285
2021-01-13,0.009305323058728495
2021-01-14,0.004845370793819592
2021-01-15,-0.007248234284747205
2021-01-16,-0.001982547114701949
2021-01-17,-0.0007507437255565405
2021-01-18,0.0024032490088399952
2021-01-19,-0.0014464947837975154
2021-01-20,-0.0007273194642110054
2021-01-21,-0.012574215264575554
2021-01-22,0.006468023628626951
2021-01-23,-0.0026250906674031294
2021-01-24,0.0005118118846180986
2021-01-25,-0.00020869837788540797
2021-01-26,0.001239197705310127
2021-01-27,-0.007688008793692285
2021-01-28,0.010448110541352655
2021-01-29,0.0023981444422601556
2021-01-30,0.0001638983333936972
2021-01-31,-0.0037288127657585744
2021-02-01,0.0007173868422804265
2021-02-02,0.005954735182025899
2021-02-03,0.006081206407379969
2021-02-04,-0.0026740481426098806
2021-02-05,0.004373892045394718
2021-02-06,0.002550942610591545
2021-02-07,-0.0009749842682105794
2021-02-08,0.019738438710999888
2021-02-09,0.0008193942973924761
2021-02-10,-0.003841987504416717
2021-02-11,0.007209147391890251
2021-02-12,-0.0011980700923818828
2021-02-13,-0.0004115426940429602
2021-02-14,0.002962600162391972
2021-02-15,-0.0010135893317947417
2021-02-16,0.0017300001760870785
2021-02-17,0.005487186530640533
2021-02-18,-0.00032987319081024917
2021-02-19,0.008940565412116835
2021-02-20,-4.8760692580840376e-05
2021-02-21,0.003074162248857067
2021-02-22,-0.005547193084345551
2021-02-23,-0.009799246498476228
2021-02-24,0.0029947075943645403
2021-02-25,-0.006617555309731492
2021-02-26,-0.003733937843564125
2021-02-27,-0.00018105213908109485
2021-02-28,-0.0013132622555979089
2021-03-01,0.009557178632007831
2021-03-02,-0.0019558050308804173
2021-03-03,0.0028252624511429544
2021-03-04,-0.004830612075289138
2021-03-05,0.0005752623078987196
2021-03-06,0.00021914262808691426
2021-03-07,0.004340800017715049
2021-03-08,0.0025323210088047617
2021-03-09,0.0051610724440488386
2021-03-10,0.0021018801829663478
2021-03-11,0.003970381123611535
2021-03-12,-0.0011735842375733194
2021-03-13,0.006737357818281487
2021-03-14,-0.0034143500136468267
2021-03-15,-0.005625114099426603
2021-03-16,0.0023886664058971083
2021-03-17,0.004220596392996828
2021-03-18,-0.0033249586025522384
2021-03-19,0.0006129805400294366
2021-03-20,0.00017140599923118785
2021-03-21,-0.0016580154200492195
2021-03-22,-0.006142614791080354
2021-03-23,-0.0014088104355114497
2021-03-24,-0.004047747362042689
2021-03-25,-0.0015693562522997903
2021-03-26,0.008120021916018988
2021-03-27,0.0013543239525311789
2021-03-28,-7.271185949234905e-05
2021-03-29,0.0031600043870447956
2021-03-30,0.0017521833062606068
2021-03-31,0.0004284620538499762
2021-04-01,0.0003708095525464527
2021-04-02,0.00012480678502963696
2021-04-03,-0.0033078908530998767
2021-04-04,0.002346264352718354
2021-04-05,0.0016113982761108397
2021-04-06,-0.0035739680584928363
2021-04-07,-0.004969951661088895
2021-04-08,0.0037075590985259613
2021-04-09,-0.0002178837869316904
2021-04-10,0.0028701466661523655
2021-04-11,0.0004374681337272543
2021-04-12,-0.0007181765879254337
2021-04-13,0.00634048601221188
2021-04-14,0.0007383400314239262
2021-04-15,0.0004528070121227883
2021-04-16,-0.002704564051205046
2021-04-17,-0.002281928257209887
2021-04-18,-0.006383326663463967
2021-04-19,-0.0013585027991266105
2021-04-20,0.0004479111224086485
2021-04-21,-0.0037162095622152213
2021-04-22,-0.004927256366576847
2021-04-23,-0.0006052127401339198
2021-04-24,-0.002070450149903924
2021-04-25,-0.0020676652330492056
2021-04-26,0.011200782867369323
2021-04-27,0.0013572045637852445
2021-04-28,0.00027785164610787957
2021-04-29,-0.002625653195660781
2021-04-30,0.006524158008057327
2021-05-01,0.00018049261480048708
2021-05-02,-0.0019350153695917637
2021-05-03,0.0016371465114403386
2021-05-04,-0.007527138557244975
2021-05-05,0.009121432362558411
2021-05-06,-0.001684436374306064
2021-05-07,0.0020045040272341206
2021-05-08,0.0027071677135663166
2021-05-09,-0.000681686655426519
2021-05-10,-0.004258349143785341
2021-05-11,0.001892059986728813
2021-05-12,-0.01362572955964676
2021-05-13,-0.000717837938486275
2021-05-14,0.0012304944998117752
2021-05-15,-0.006271955735392543
2021-05-16,-0.0007454695726545111
2021-05-17,-0.005932702986572683
2021-05-18,-0.0020756515253340393
2021-05-19,-0.015189076104524107
2021-05-20,0.01094666922910907
2021-05-21,-0.008595557985746153
2021-05-22,0.0004400389918824077
2021-05-23,-0.00746694876151435
2021-05-24,0.012448604406519426
2021-05-25,-0.0014627940484746443
2021-05-26,0.0027791761658013457
2021-05-27,-0.0014073561664171795
2021-05-28,-0.007876326379937555
2021-05-29,-0.003056074325810643
2021-05-30,0.0030632875993745843
2021-05-31,0.005074252623495901
2021-06-01,-0.002054991847305536
2021-06-02,0.0027388263087431753
2021-06-03,0.0036350134247899314
2021-06-04,-0.005561462695327456
2021-06-05,-0.0036143616501321807
2021-06-06,0.0007567572207359698
2021-06-07,-0.006212564711866422
2021-06-08,-0.0007600070711533432
2021-06-09,0.011753238197365611
2021-06-10,-0.0015006522769831353
2021-06-11,0.0011007274924555914
2021-06-12,-0.004914157010160592
2021-06-13,0.009786935132269744
2021-06-14,0.003922132834182235
2021-06-15,-0.0013500837086956748
2021-06-16,-0.005454321007096543
2021-06-17,-0.0015636721545681468
2021-06-18,-0.007976721404099264
2021-06-19,-0.000940201071060931
2021-06-20,0.00035593102582195767
2021-06-21,-0.010773188817805847
2021-06-22,0.003288373229762667
2021-06-23,0.0034538219152938387
2021-06-24,0.0025169920214006334
2021-06-25,-0.00877801807223323
2021-06-26,0.002139744616746153
2021-06-27,0.0076573615671442306
2021-06-28,-0.000891446431288575
2021-06-29,0.003483846516696428
2021-06-30,-0.0022704611907293486
2021-07-01,-0.00486162125430205
2021-07-02,0.0018172187812751594
2021-07-03,0.0026944087598631764
2021-07-04,0.0016655023517282914
2021-07-05,-0.0045685794333172125
2021-07-06,0.0007358710316646859
2021-07-07,-0.0012240483701133704
2021-07-08,-0.0036757191477755
2021-07-09,0.00398504224243076
2021-07-10,-0.0008884887433921907
2021-07-11,0.0021882106761565295
2021-07-12,-0.0035953141568209027
2021-07-13,-0.0017762294107135216
2021-07-14,6.125435180494822e-05
2021-07-15,-0.0033961724695265563
2021-07-16,-0.0019002183338371313
2021-07-17,0.0004731832533344954
2021-07-18,0.0005977733620754139
2021-07-19,-0.004475880693083225
2021-07-20,-0.0027594379332874894
2021-07-21,0.00896523755192789
2021-07-22,0.000912365016174273
2021-07-23,0.004142391100210943
2021-07-24,0.0018351666081805496
2021-07-25,0.003233839800333917
2021-07-26,0.005349321059002052
2021-07-27,0.005913592410253472
2021-07-28,0.0018529101021530921
2021-07-29,0.0003934052210281821
2021-07-30,0.005247162221081371
2021-07-31,-0.0017823817001985211
2021-08-01,-0.0038690355463739472
2021-08-02,-0.00231597618854907
2021-08-03,-0.0030244131796833495
2021-08-04,0.004151434889950658
2021-08-05,0.0033256864017355125
2021-08-06,0.005403221979524591
2021-08-07,0.003961948126395054
2021-08-08,-0.0017447363454773895
2021-08-09,0.005891237937209416
2021-08-10,-0.0011881994213768096
2021-08-11,-0.0008234158486722752
2021-08-12,-0.002290351980493348
2021-08-13,0.006744616186090927
2021-08-14,-0.001501000211900677
2021-08-15,-0.00028513368163460095
2021-08-16,-0.00284947113056046
2021-08-17,-0.0022882009651411725
2021-08-18,0.00042034151968923833
2021-08-19,0.0035871972418623477
2021-08-20,0.005170522969048704
2021-08-21,-0.0009641344813404951
2021-08-22,0.000986024655353447
2021-08-23,0.00013253647638183534
2021-08-24,-0.004202688847762919
2021-08-25,0.0024133230924281005
2021-08-26,-0.0044321278567806795
2021-08-27,0.004200072694861653
2021-08-28,-0.00044388028314431866
2021-08-29,-0.0002886663191221742
2021-08-30,-0.003198054145529607
2021-08-31,-0.00015827931150584726
2021-09-01,0.003503831086290243
2021-09-02,0.0012560857222134998
2021-09-03,0.0016163389980978166
2021-09-04,-0.00024138539021671958
2021-09-05,0.0035985372214383652
2021-09-06,0.0018185702380665645
2021-09-07,-0.011533155062014381
2021-09-08,-0.0018076668081149626
2021-09-09,0.0008199221464758299
2021-09-10,-0.0032733974263942454
2021-09-11,0.0006574589148148443
2021-09-12,0.0017551213676144154
2021-09-13,-0.0022165559247228823
2021-09-14,0.005074457963380546
2021-09-15,0.002065250311037042
2021-09-16,-0.00038483178314218037
2021-09-17,-0.0008369260895857628
2021-09-18,0.002090996618739806
2021-09-19,-0.0021527192698808585
2021-09-20,-0.00933058978755183
2021-09-21,-0.005177798069429259
2021-09-22,0.007171642748594827
2021-09-23,0.0026764984629666227
2021-09-24,-0.00412294589595278
2021-09-25,-0.0004366002743299294
2021-09-26,0.0010816778138645182
2021-09-27,-0.0020610647016328673
2021-09-28,-0.003328016226387546
2021-09-29,0.0008965606462630402
2021-09-30,0.005379193484732096
2021-10-01,0.00985124806608949
2021-10-02,-0.0009561705937414345
2021-10-03,0.001158280273419304
2021-10-04,0.0020440187493045757
2021-10-05,0.004736582592040446
2021-10-06,0.00771377685525185
2021-10-07,-0.002841212688355809
2021-10-08,0.0005810834759807574
2021-10-09,0.0018168362970347519
2021-10-10,-0.0003909021341746597
2021-10-11,0.00443686030601395
2021-10-12,-0.0020950362886196575
2021-10-13,0.0017925294735462193
2021-10-14,-0.00031814469231540425
2021-10-15,0.007294200715940323
2021-10-16,-0.0013997887472655265
2021-10-17,0.0009112048279650669
2021-10-18,0.0006299744716863374
2021-10-19,-0.00426909316195082
2021-10-20,-0.003203169724334891
2021-10-21,0.0060741818166604265
2021-10-22,0.0020223508664797734
2021-10-23,0.001014270495781036
2021-10-24,-0.000893004774140995
2021-10-25,-0.0017849213005097732
2021-10-26,-0.004616139478738347
2021-10-27,-0.0031224584321695205
2021-10-28,0.003141488980596547
2021-10-29,0.0029179477627068752
2021-10-30,0.0006521154788693125
2021-10-31,0.0008844229635568831
2021-11-01,0.00023903395604842563
2021-11-02,0.0046787574677632626
2021-11-03,-0.0009377803142407602
2021-11-04,-0.0018531072137791028
2021-11-05,-0.0008698933017721584
2021-11-06,0.0009245120808586634
2021-11-07,0.00289019289593298
2021-11-08,0.0065235086629613
2021-11-09,-0.00039083052971342763
2021-11-10,-0.0027461946299608235
2021-11-11,-0.00021472599597402125
2021-11-12,-0.0012115360279670564
2021-11-13,0.0003490071130537244
2021-11-14,0.0017593569530145181
2021-11-15,-0.00293480053790978
2021-11-16,-0.005609500697959856
2021-11-17,0.0007147230388285744
2021-11-18,-0.005753237545887653
2021-11-19,0.002625892299499546
2021-11-20,0.0028014977481988206
2021-11-21,-0.001858548749327825
2021-11-22,-0.004364468912737321
2021-11-23,0.0023618689843597678
2021-11-24,-0.000530176239171739
2021-11-25,0.003463311833243372
2021-11-26,-0.007407310547357251
2021-11-27,0.0018431029248372256
2021-11-28,0.0044244758418049744
2021-11-29,0.0011032317533647116
2021-11-30,-0.0009892474375072858
2021-12-01,0.0005678286758745084
2021-12-02,-0.0010609196958468715
2021-12-03,-0.003889059195955173
2021-12-04,-0.008215514845371986
2021-12-05,0.00016646499531099596
2021-12-06,-0.0010730960207115286
2021-12-07,-0.00034487569755558005
2021-12-08,-1.724584517782897e-05
2021-12-09,-0.00018652896387322552
2021-12-10,-0.00019212786388367754
2021-12-11,0.0
2021-12-12,5.13297152672548e-05
2021-12-13,0.0002452328846850233
2021-12-14,-2.4824489906005064e-05
2021-12-15,-0.0007478610474558672
2021-12-16,0.0002637115159335781
2021-12-17,0.00022235802835244802
2021-12-18,0.0
2021-12-19,0.00018846017765101943
2021-12-20,-4.303166764235469e-05
2021-12-21,-0.005013646202994727
2021-12-22,-0.00018705731696847672
2021-12-23,-0.004963212474711494
2021-12-24,0.00020086759441185895
2021-12-25,0.0007886073418870821
2021-12-26,-0.0009209322287957673
2021-12-27,0.00015496606945248058
2021-12-28,0.006404126854708154
2021-12-29,0.0014466105524423539
2021-12-30,-0.001036575249179064
2021-12-31,0.0013872816799587785
2022-01-01,-0.0035769479375545696
2022-01-02,-0.00033031057659999334
2022-01-03,-0.000124042788680964
2022-01-04,0.0009135509755875162
2022-01-05,0.00546599313402898
2022-01-06,0.0013249003858753887
2022-01-07,0.0028277873710627495
2022-01-08,-0.0003051809948047657
2022-01-09,-0.00042784893665036836
2022-01-10,-0.000278909205272809
2022-01-11,-0.0028616849191396916
2022-01-12,-0.003742263124364739
2022-01-13,0.0032271747460101137
2022-01-14,-0.0004937621098404617
2022-01-15,4.887513118443272e-06
2022-01-16,-8.135815280809338e-05
2022-01-17,0.0022135151937044497
2022-01-18,-0.0001627200441628171
2022-01-19,0.0014159354098844195
2022-01-20,0.0023989892187146573
2022-01-21,0.011626125523205315
2022-01-22,0.003605959005485549
2022-01-23,0.0032265172852016417
2022-01-24,0.0015167964486507634
2022-01-25,0.0003429082337743983
2022-01-26,-0.00026470112969094304
2022-01-27,0.0018359535097982422
2022-01-28,0.0020931320055552556
2022-01-29,0.001175712448753248
2022-01-30,-0.0007383332240769015
2022-01-31,0.0009298591143971462
2022-02-01,-0.0002658776326424419
2022-02-02,-0.004532222779675336
2022-02-03,2.654567082483398e-05
2022-02-04,0.01164190867685242
2022-02-05,-0.00035931513044004106
2022-02-06,0.0023524678724314635
2022-02-07,0.0032962127919739653
2022-02-08,0.000341855532914221
2022-02-09,0.00011505162450365806
2022-02-10,-0.0020015050908996656
2022-02-11,-0.002100124860977676
2022-02-12,-0.00040223255831522975
2022-02-13,-0.00048144928888830825
2022-02-14,0.0015642282435644047
2022-02-15,0.00441628415770127
2022-02-16,-0.0019229730044472665
2022-02-17,-0.0075737301823329125
2022-02-18,-0.0013288113753049879
2022-02-19,0.0002951182400266416
2022-02-20,-0.004241934331846614
2022-02-21,-0.003682224395719163
2022-02-22,-0.004550092737357783
2022-02-23,0.0027438675544285357
2022-02-24,-0.0020224392394421185
2022-02-25,-0.003816380148245797
2022-02-26,-0.0003225942965002116
2022-02-27,-0.0026015102541162333
2022-02-28,0.014302616753905586
2022-03-01,0.002821228683033059
2022-03-02,-0.0016610380831828821
2022-03-03,-0.0035617882647024503
2022-03-04,-0.008369876263328453
2022-03-05,0.0005773471460657654
2022-03-06,-0.003068422774417858
2022-03-07,-0.0008639053695071448
2022-03-08,0.0021293581536026727
2022-03-09,0.007547043352274291
2022-03-10,-0.006998225205211466
2022-03-11,-0.000663597132772235
2022-03-12,0.00014891549994664466
2022-03-13,-0.0026654976941146934
2022-03-14,0.005856067403181592
2022-03-15,-0.0012292828722228484
2022-03-16,0.0029068213445955942
2022-03-17,-0.0014622444323103367
2022-03-18,0.0021527762298875807
2022-03-19,0.0010974642322325368
2022-03-20,-0.0022624205658204888
2022-03-21,-0.00037151277694620003
2022-03-22,0.0023555323515369853
2022-03-23,0.0010942532446304005
2022-03-24,0.0026773882937758476
2022-03-25,0.0008443615878580713
2022-03-26,0.00045316736527054594
2022-03-27,0.005201997574847389
2022-03-28,0.00045981179709929355
2022-03-29,0.00045171958039142617
2022-03-30,-0.0006569996552111368
2022-03-31,-0.003149471392148336
2022-04-01,0.0017232585071501037
2022-04-02,-0.0010210296796527186
2022-04-03,0.001347829616838487
2022-04-04,0.0004143246160656788
2022-04-05,-0.002406869255525862
2022-04-06,-0.005067754896613548
2022-04-07,0.000731606735173215
2022-04-08,-0.0026543163973477626
2022-04-09,0.0011636977624493118
2022-04-10,-0.0014205888493965342
2022-04-11,-0.006252757002193553
2022-04-12,0.0016552570110500992
2022-04-13,0.0022602638642779836
2022-04-14,-0.0024409293657968695
2022-04-15,0.0015996997347209497
2022-04-16,-0.0004275133152301991
2022-04-17,-0.001758269795281696
2022-04-18,0.0028246885833303923
2022-04-19,0.0017090147262999553
2022-04-20,-0.0001569184686955858
2022-04-21,-0.00266604247206925
2022-04-22,-0.0020041838920225844
2022-04-23,-0.000643819758689801
2022-04-24,-2.2715058957519925e-05
2022-04-25,0.0026755608081974664
2022-04-26,-0.005241894845633001
2022-04-27,0.0032929452845904157
2022-04-28,0.001821554885306233
2022-04-29,-0.0037543609594866516
2022-04-30,-0.002543487904019837
2022-05-01,0.0023384667774073867
2022-05-02,0.00033451866055688465
2022-05-03,-0.0017384707392454062
2022-05-04,0.005092626860986078
2022-05-05,-0.007230117912493485
2022-05-06,-0.0017373551362104497
2022-05-07,-0.001513069005381973
2022-05-08,-0.004153881767997123
2022-05-09,-0.0006209622025893907
2022-05-10,0.0001386773745034747
2022-05-11,0.00045036279210296855
2022-05-12,0.0001720573762949019
2022-05-13,9.499185460864321e-05
2022-05-14,0.0
2022-05-15,8.17615883913636e-05
2022-05-16,-0.000282235399115721
2022-05-17,-0.0007152531299119785
2022-05-18,0.0007009604808977164
2022-05-19,-0.0003378543298919465
2022-05-20,-0.00022251401814493604
2022-05-21,0.0
2022-05-22,1.064546118468839e-05
2022-05-23,-0.00037783372069632374
2022-05-24,7.639462198723738e-05
2022-05-25,-0.00023848922447685026
2022-05-26,-0.00011251471912695158
2022-05-27,0.0001971046045293718
2022-05-28,0.0
2022-05-29,2.6980565547335338e-05
2022-05-30,-1.453936959429254e-05
2022-05-31,0.0003444972193335558
2022-06-01,0.000771953510118754
2022-06-02,-0.00024285091682667086
2022-06-03,0.0002373572456129771
2022-06-04,0.0
2022-06-05,-4.933042538352183e-05
2022-06-06,-0.00020081377337236142
2022-06-07,-8.422893180004743e-05
2022-06-08,-4.054478631956455e-05
2022-06-09,-2.6371071058445514e-05
2022-06-10,0.0006667514997710997
2022-06-11,0.0
2022-06-12,0.00014309132315190544
2022-06-13,0.0003615024331146402
2022-06-14,0.00026501882969261756
2022-06-15,-0.0001332244257008616
2022-06-16,-0.0008176954295977164
2022-06-17,0.00018252375385518013
2022-06-18,0.0
2022-06-19,6.429183467021246e-05
2022-06-20,-5.491569987125189e-05
2022-06-21,1.052396784212893e-05
2022-06-22,-0.00017034602555508158
2022-06-23,-2.446158429315985e-05
2022-06-24,4.0121453210578506e-05
2022-06-25,0.0
2022-06-26,-1.4195153098011674e-05
2022-06-27,0.00019775742271590136
2022-06-28,0.0006960421767603196
2022-06-29,0.0006894735942726178
2022-06-30,-0.00034026517958817633
2022-07-01,0.00030698100985110654
2022-07-02,0.0
2022-07-03,-3.8758764425320505e-06
2022-07-04,-0.0001741374231940254
2022-07-05,0.0007760665726833608
2022-07-06,0.0003186341928813221
2022-07-07,-0.0006408827911735795
2022-07-08,-0.0002214366542351466
2022-07-09,0.0
2022-07-10,6.926754340830181e-05
2022-07-11,0.000796187167701571
2022-07-12,0.00014719433113503648
2022-07-13,0.0002096284350104401
2022-07-14,-0.00022878472390985277
2022-07-15,9.434753869989033e-05
2022-07-16,0.0
2022-07-17,-0.00017929446709695336
2022-07-18,-0.00039487525652857447
2022-07-19,-0.0001334969813840626
2022-07-20,0.00018763811896854046
2022-07-21,-2.163315690487645e-05
2022-07-22,0.00017011662778543022
2022-07-23,0.0
2022-07-24,8.416747264739817e-05
2022-07-25,-0.0004205567844979664
2022-07-26,0.0005240429489942347
2022-07-27,-0.0005794924154377175
2022-07-28,0.00013612289351924283
2022-07-29,6.006632068149358e-05
2022-07-30,0.0
2022-07-31,1.555115028761136e-05
2022-08-01,-0.0006459628726962457
2022-08-02,0.0006850030556417245
2022-08-03,-0.0002408573503411599
2022-08-04,-9.593603035531773e-05
2022-08-05,0.00025386781869220253
2022-08-06,0.0
2022-08-07,4.0803899095463494e-05
2022-08-08,0.00019076748601675635
2022-08-09,4.4533443198466996e-05
2022-08-10,-0.00046511585024667655
2022-08-11,-1.6359806920480897e-05
2022-08-12,0.000412036776923617
2022-08-13,0.0
2022-08-14,2.0534901726513683e-05
2022-08-15,0.0004660557711951279
2022-08-16,-0.0002653190537156761
2022-08-17,0.00020357510458248194
2022-08-18,0.0005779173107549232
2022-08-19,0.0006686483196851935
2022-08-20,0.0
2022-08-21,5.144103314550021e-05
2022-08-22,0.00017439515162671735
2022-08-23,-0.00035849067590741103
2022-08-24,0.00013038101070322376
2022-08-25,-6.649817299576359e-05
2022-08-26,0.00040267290193784984
2022-08-27,0.0
2022-08-28,0.00022629669347511643
2022-08-29,-0.0003991817309137838
2022-08-30,-0.00016899767523332593
2022-08-31,-6.152714899010893e-05
2022-09-01,0.0004944547537062234
2022-09-02,0.00011001879854843143
2022-09-03,0.0
2022-09-04,0.0001358862500399896
2022-09-05,0.0003875005355704707
2022-09-06,0.005880582548743117
2022-09-07,-0.003517425903969793
2022-09-08,-0.0005581467439549448
2022-09-09,-0.011022069686955903
2022-09-10,-0.0014309405268624737
2022-09-11,-0.0010452127595589136
2022-09-12,-0.0031828547160431707
2022-09-13,0.011631375219879522
2022-09-14,-0.0003830389149822463
2022-09-15,0.0007984006743673598
2022-09-16,-0.0003054449925385386
2022-09-17,0.0
2022-09-18,-6.927727647646211e-05
2022-09-19,0.0003442249041043252
2022-09-20,0.000506287552385837
2022-09-21,0.0010158958717282002
2022-09-22,-0.00023394582276376245
2022-09-23,0.0031158454163704255
2022-09-24,0.0
2022-09-25,0.00034284319964523585
2022-09-26,0.0004401575335544973
2022-09-27,0.000639268724982132
2022-09-28,-0.00100009865089123
2022-09-29,-0.002330045854352985
2022-09-30,0.0010165368311797227
2022-10-01,0.0
2022-10-02,3.531773454985501e-05
2022-10-03,-0.002217889587613906
2022-10-04,-0.00012913574507465738
2022-10-05,-0.00022071890150177325
2022-10-06,0.0018554323470440469
2022-10-07,0.0009143034135318101
2022-10-08,0.0
2022-10-09,0.0001175320198062051
2022-10-10,0.00013044962471607817
2022-10-11,0.0005560354333994065
2022-10-12,-0.0011847001245220224
2022-10-13,-0.001460944749489513
2022-10-14,0.0012122787458864368
2022-10-15,0.0
2022-10-16,-0.00042923301167191365
2022-10-17,-0.0010448894926413026
2022-10-18,-0.00035300088189849695
2022-10-19,0.0007053505505563121
2022-10-20,-0.00014470515959610466
2022-10-21,-0.0010117642662457024
2022-10-22,0.0
2022-10-23,-0.00025175330111340923
2022-10-24,0.0006701822494528491
2022-10-25,-0.0009834044658888637
2022-10-26,-0.0017061239360061727
2022-10-27,0.00037220953642030995
2022-10-28,-0.000345683253860397
2022-10-29,0.0
2022-10-30,0.0001926141693075365
2022-10-31,0.0002744412757210053
2022-11-01,-0.00034790749485214803
2022-11-02,0.0006589252394289054
2022-11-03,0.0013573849552475893
2022-11-04,-0.0018486924496970642
2022-11-05,0.0
2022-11-06,0.000527337522306556
2022-11-07,-0.0012935070129194161
2022-11-08,-0.00014997394114492075
2022-11-09,0.0016325883542085454
2022-11-10,-0.00228685836157131
2022-11-11,-0.0009760027668545654
2022-11-12,0.0
2022-11-13,0.00026534058835597676
2022-11-14,0.00026134623307265945
2022-11-15,-0.0013920457874046482
2022-11-16,-0.00021142326518305555
2022-11-17,0.000307182545720793
2022-11-18,-0.0006225287548447722
2022-11-19,0.0
2022-11-20,-8.1515086089548e-05
2022-11-21,0.0007297346365047509
2022-11-22,-0.0005630465772805642
2022-11-23,-0.0016879870071279447
2022-11-24,-0.0003529312490626311
2022-11-25,9.236618551710393e-05
2022-11-26,0.0
2022-11-27,0.00013431459047839403
2022-11-28,0.0004516733648125405
2022-11-29,-9.803000820074287e-05
2022-11-30,-0.0003596066268609505
2022-12-01,-0.0007358773859622958
2022-12-02,-0.00018924651258096087
2022-12-03,0.0
2022-12-04,-8.70920806683984e-06
2022-12-05,0.0003594529107538735
2022-12-06,0.000320160006855169
2022-12-07,-0.0003374099860574208
2022-12-08,-7.654841675916604e-06
2022-12-09,-0.00011651404287141295
2022-12-10,0.0
2022-12-11,0.0001514228592202746
2022-12-12,-0.0002094436585531151
2022-12-13,-0.0005229847358374877
2022-12-14,-0.0001000253059800281
2022-12-15,0.005976236972472072
2022-12-16,-0.0002101002870198068
2022-12-17,0.0
2022-12-18,-0.00017470320456520238
2022-12-19,0.00023732954210908488
2022-12-20,0.0005594818086019525
2022-12-21,0.0004111704324449588
2022-12-22,0.0008436313968865373
2022-12-23,-0.0018185654152709702
2022-12-24,0.0
2022-12-25,0.000386723885305921
2022-12-26,-0.0012696816156635435
2022-12-27,0.0009145159709296488
2022-12-28,-0.00023702501008869255
2022-12-29,-0.00038633100478416705
2022-12-30,-0.00188405175376017
2022-12-31,0.0
2023-01-01,0.0008181873713654652
2023-01-02,0.000432597758998629
2023-01-03,0.0015639656375182162
2023-01-04,-0.003455828829911937
2023-01-05,0.0026536648227838693
2023-01-06,-0.004515126360777104
2023-01-07,0.0
2023-01-08,-0.0005920496841259754
2023-01-09,-0.00028652948814941693
2023-01-10,0.0007916241628980263
2023-01-11,-0.0022800580252737212
2023-01-12,-0.0014750510250158045
2023-01-13,5.059139673340092e-05
2023-01-14,0.0
2023-01-15,9.235255177220795e-05
2023-01-16,0.0005695897070592107
2023-01-17,-0.00015051422994740918
2023-01-18,0.003610927599643051
2023-01-19,0.00034329496113385475
2023-01-20,-0.003504428502365924
2023-01-21,0.0
2023-01-22,-0.00043611041778534763
2023-01-23,-0.0014470817417587033
2023-01-24,-0.0005733974792260314
2023-01-25,-0.00048131426878116507
2023-01-26,-0.0016697253611690362
2023-01-27,-0.00025475062807708897
2023-01-28,0.0
2023-01-29,1.948990135755906e-05
2023-01-30,0.0006204548664794372
2023-01-31,0.0009011210831920391
2023-02-01,0.000606144602845341
2023-02-02,0.000264990769044478
2023-02-03,-5.694433536744038e-05
2023-02-04,0.0
2023-02-05,-5.356308652315594e-05
2023-02-06,0.0005524666654810604
2023-02-07,-0.00010759955024995077
2023-02-08,0.001095175273410445
2023-02-09,-0.0003740504840527411
2023-02-10,-0.0013981310230143003
2023-02-11,0.0
2023-02-12,0.00015780965024238684
2023-02-13,0.00040596949987243105
2023-02-14,-0.0005413263287841121
2023-02-15,0.0008174941801843933
2023-02-16,0.0008511574605378162
2023-02-17,0.0003119526894442348
2023-02-18,0.0
2023-02-19,-6.254912793472485e-05
2023-02-20,-0.00010949621292592054
2023-02-21,0.00026764834788817947
2023-02-22,-0.00029774048721004884
2023-02-23,-0.0006529508827029427
2023-02-24,-0.004109630802589601
2023-02-25,-0.00023054065211492583
2023-02-26,0.0016742011412005145
2023-02-27,0.0002982295598630092
2023-02-28,-0.002372963753653987
2023-03-01,0.0020363961135305285
2023-03-02,-0.001019890948329944
2023-03-03,-0.003508979305045603
2023-03-04,-0.00011915575671328634
2023-03-05,0.000324448903525916
2023-03-06,0.001646927681826813
2023-03-07,-0.001222194883212993
2023-03-08,-0.0013296891577063397
2023-03-09,-0.004127013305443428
2023-03-10,0.0017996867131386885
2023-03-11,0.0
2023-03-12,-0.0002732872015303402
2023-03-13,0.0012221868651452032
2023-03-14,-0.0011019582952411485
2023-03-15,-0.0031806878520165864
2023-03-16,-8.770890376858483e-05
2023-03-17,0.0007277363335091615
2023-03-18,0.0
2023-03-19,-0.0004162129838315234
2023-03-20,-0.0012987282342914663
2023-03-21,0.0024110590487326135
2023-03-22,0.0012983233725585052
2023-03-23,1.2465519578256748e-05
2023-03-24,-0.000399569669730398
2023-03-25,0.0
2023-03-26,4.177220070867173e-05
2023-03-27,-2.1111136993483677e-05
2023-03-28,-0.002146422128015358
2023-03-29,0.0002768490953999825
2023-03-30,0.0005413991675125563
2023-03-31,-0.0003413709175916223
2023-04-01,0.0
2023-04-02,-0.0006850941407120766
2023-04-03,2.865122361569308e-05
2023-04-04,0.001726016398933069
2023-04-05,0.00016805774083444015
2023-04-06,0.0010552046731581092
2023-04-07,0.0004187684391777119
2023-04-08,0.0
2023-04-09,-0.0003484908777920256
2023-04-10,-0.0011368607276973565
2023-04-11,0.0006434724600194295
2023-04-12,0.0009306438345343479
2023-04-13,-0.0007145608416121661
2023-04-14,0.00033700417724348715
2023-04-15,0.0
2023-04-16,-0.00010953936448435952
2023-04-17,-0.0006967468882302871
2023-04-18,2.0589293036537854e-05
2023-04-19,0.0006452203759289294
2023-04-20,0.00048486658365445124
2023-04-21,0.0018220529042490246
2023-04-22,0.0
2023-04-23,9.750049135410856e-05
2023-04-24,0.0005774464734003546
2023-04-25,0.0006055948420919132
2023-04-26,0.0013266143323815752
2023-04-27,-0.0014265041737058354
2023-04-28,-0.00022224833221039605
2023-04-29,0.0
2023-04-30,0.00015109203113220076
2023-05-01,-0.0007962442866511156
2023-05-02,-7.742533259707637e-05
2023-05-03,0.003124810073414221
2023-05-04,-0.002624265832214871
2023-05-05,-0.0027903712805607815
2023-05-06,0.0
2023-05-07,-5.199130084368806e-05
2023-05-08,-0.0007253071224281491
2023-05-09,0.00011319844479254986
2023-05-10,-0.00023788011233039257
2023-05-11,0.0009039824314211472
2023-05-12,0.0007272473215110598
2023-05-13,0.0
2023-05-14,-0.0001284822857320822
2023-05-15,-0.0008230855738310525
2023-05-16,0.0005773101389213993
2023-05-17,-0.0006861313617806348
2023-05-18,-0.0010794575173871965
2023-05-19,0.0007039515527381367
2023-05-20,0.0
2023-05-21,0.00012600699177610228
2023-05-22,0.00010851707561618202
2023-05-23,-4.952187999604824e-05
2023-05-24,0.0012695046584461779
2023-05-25,0.00040348822120187704
2023-05-26,-0.0003602024926901006
2023-05-27,-3.876000000000001e-05
2023-05-28,-0.0003227298227093985
2023-05-29,0.00019990357505959342
2023-05-30,-4.5657439783851995e-06
2023-05-31,-0.0008860500329223118
2023-06-01,0.0002203179161350151
2023-06-02,-0.0017313362072015662
2023-06-03,-4.5900000000000004e-05
2023-06-04,-0.00017839998122566006
2023-06-05,0.0007561122895913683
2023-06-06,-0.0014879236224889945
2023-06-07,-0.0006090366476219525
2023-06-08,0.0023692408604522926
2023-06-09,-0.0009384597252007105
2023-06-10,-3.6179999999999996e-05
2023-06-11,-5.928390879314551e-05
2023-06-12,-0.0011364503013348017
2023-06-13,0.001015192931741455
2023-06-14,0.0017674409214525314
2023-06-15,0.0006840171862325296
2023-06-16,-0.0004064296310686375
2023-06-17,-4.059e-05
2023-06-18,-0.00010099820684554431
2023-06-19,-0.0002723078253828683
2023-06-20,0.0001554962127269372
2023-06-21,0.0009913682935904684
2023-06-22,-0.00048356902996499565
2023-06-23,-1.792182689744696e-05
2023-06-24,-4.0140000000000005e-05
2023-06-25,0.00024543506889642547
2023-06-26,-0.00013144544287865608
2023-06-27,0.0009106191932071058
2023-06-28,-0.0008261568656663668
2023-06-29,-0.0007561652598367681
2023-06-30,0.0005805531252229539
2023-07-01,0.0
2023-07-02,3.4250401676060346e-05
2023-07-03,-0.0004179462468003068
2023-07-04,-0.0006493793021423028
2023-07-05,-3.960356843310586e-05
2023-07-06,0.001482693972364085
2023-07-07,0.0007246947744174462
2023-07-08,-4.1110000000000005e-05
2023-07-09,7.554448639616569e-05
2023-07-10,0.0009751140474806039
2023-07-11,0.001518829742881991
2023-07-12,0.0023993183522584534
2023-07-13,0.001490246284485013
2023-07-14,-0.0001499801099044703
2023-07-15,-4.731e-05
2023-07-16,5.467723786033388e-05
2023-07-17,0.0008696025767610709
2023-07-18,0.0005500316526105611
2023-07-19,0.00011879357146722967
2023-07-20,-0.002350586874361736
2023-07-21,0.0009784563384704812
2023-07-22,-3.247e-05
2023-07-23,-1.5925876275829886e-05
2023-07-24,-0.0014448525649021788
2023-07-25,0.0004305682283610854
2023-07-26,0.0013675547274134962
2023-07-27,-0.0011097008928367524
2023-07-28,0.0013019442132627753
2023-07-29,0.0
2023-07-30,-3.238030811999889e-05
2023-07-31,-0.0018443058865466638
2023-08-01,0.001657203777953361
2023-08-02,0.0003583687117670032
2023-08-03,0.000410201812244897
2023-08-04,0.0003747371243855116
2023-08-05,0.0
2023-08-06,-0.00040655194495476223
2023-08-07,0.00035954639449540106
2023-08-08,-0.00013261584200882946
2023-08-09,-0.0004880284090380115
2023-08-10,0.0009750506725235052
2023-08-11,0.0008374423575776623
2023-08-12,0.0
2023-08-13,-5.249123714108927e-05
2023-08-14,-5.136546442946213e-05
2023-08-15,0.0005903810844890097
2023-08-16,0.0007093885488987388
2023-08-17,0.0006306334156707014
2023-08-18,-0.0008678890924915952
2023-08-19,0.0
2023-08-20,-0.00020584178935546547
2023-08-21,0.000856039757400719
2023-08-22,-0.000784081728874783
2023-08-23,-0.0011882033721315672
2023-08-24,0.0007844154899492857
2023-08-25,0.0004789031676261282
2023-08-26,-4.152e-05
2023-08-27,-0.00033690790735947565
2023-08-28,0.00013964665065253917
2023-08-29,-0.0007697075682016935
2023-08-30,0.0004002318127629457
2023-08-31,-0.0015714262976132152
2023-09-01,0.0006400707083299849
2023-09-02,0.0
2023-09-03,3.8609343425124624e-05
2023-09-04,0.00011629304069680478
2023-09-05,0.0012365314003850603
2023-09-06,-0.00030214913362177015
2023-09-07,-0.0005064268774252038
2023-09-08,6.862969099143922e-05
2023-09-09,-4.401e-05
2023-09-10,-0.0005474654244446921
2023-09-11,-0.0007254105665304599
2023-09-12,0.00015382084342761344
2023-09-13,-0.00037667160453184784
2023-09-14,-0.00035562300003598175
2023-09-15,-0.0002678991184230715
2023-09-16,-2.6839999999999997e-05
2023-09-17,-0.00016303507961323323
2023-09-18,-0.0002530376775025524
2023-09-19,-0.0009583150611211617
2023-09-20,0.0006194219666316903
2023-09-21,-0.0005789540048118833
2023-09-22,-0.0016363381020493555
2023-09-23,0.0
2023-09-24,6.274420127957014e-05
2023-09-25,-0.000513637780488807
2023-09-26,0.0001937428995006826
2023-09-27,0.001009518835745484
2023-09-28,-0.0017552012529319268
2023-09-29,-0.0011645826625057965
2023-09-30,0.0
2023-10-01,-7.056916997544161e-05
2023-10-02,0.0017492399248029054
2023-10-03,0.0011018365925635832
2023-10-04,-0.00020710129160386178
2023-10-05,-0.001058839939639975
2023-10-06,-0.00018729276366147063
2023-10-07,0.0
2023-10-08,0.0007421347796444467
2023-10-09,-0.001259580388795406
2023-10-10,-0.00035934116530599204
2023-10-11,0.0009844771456087747
2023-10-12,0.002817883790468989
2023-10-13,0.0018177730202727609
2023-10-14,-2.484e-05
2023-10-15,-0.0006662151317416092
2023-10-16,-0.00012051119524604818
2023-10-17,-0.0006402404778171974
2023-10-18,0.0012105971442341141
2023-10-19,0.0010531498835543004
2023-10-20,0.0003206513522060006
2023-10-21,-2.29e-05
2023-10-22,-0.00024060949034222987
2023-10-23,-0.0003219086205487144
2023-10-24,-0.0009092103327025546
2023-10-25,0.0016623297956657392
2023-10-26,-0.0018239981705001555
2023-10-27,-0.0003869578766823867
2023-10-28,0.0
2023-10-29,-2.6296393590478575e-05
2023-10-30,-0.001057305414956129
2023-10-31,-0.00013563260920136365
2023-11-01,-0.002060006551162321
2023-11-02,-0.0005133391076431921
2023-11-03,-0.0022214275803626193
2023-11-04,0.0
2023-11-05,0.00012953986498527044
2023-11-06,0.0009854248627933187
2023-11-07,0.0014006402296588712
2023-11-08,0.000939915413176781
2023-11-09,0.0006447709957391568
2023-11-10,0.00019070349382571382
2023-11-11,-2.9720000000000003e-05
2023-11-12,1.226065260236549e-06
2023-11-13,-0.00014839271306331622
2023-11-14,-0.002670394608217764
2023-11-15,-0.00026857038831177427
2023-11-16,0.0015668075599887372
2023-11-17,-0.0008423392324351236
2023-11-18,0.0
2023-11-19,0.00010322868704136704
2023-11-20,-0.0018060706248676326
2023-11-21,3.476809697243768e-06
2023-11-22,0.0009132472283738005
2023-11-23,-0.0009921872806368333
2023-11-24,-0.00039950487493756886
2023-11-25,-3.3679999999999996e-05
2023-11-26,3.785312400981913e-05
2023-11-27,-0.000807840207835205
2023-11-28,-0.0009521905332480539
2023-11-29,0.0010680227821511451
2023-11-30,0.00022653101014022926
2023-12-01,-0.000796793837758531
2023-12-02,0.0
2023-12-03,0.0001616404753383074
2023-12-04,0.0008385133126185142
2023-12-05,0.0008998204308189827
2023-12-06,-6.915588679406542e-05
2023-12-07,-0.001016493243690985
2023-12-08,-7.808169230051786e-05
2023-12-09,0.0
2023-12-10,0.00012961076088899612
2023-12-11,0.00031419966854868053
2023-12-12,0.00030794180538430487
2023-12-13,-0.001046190079311206
2023-12-14,0.00012381935333257815
2023-12-15,-0.00040893000390906876
2023-12-16,0.0
2023-12-17,5.2577788311206116e-05
2023-12-18,0.0005447564564595087
2023-12-19,0.0003486686096265811
2023-12-20,-6.0492684246139827e-05
2023-12-21,0.0003546417572910319
2023-12-22,1.8431323957238287e-07
2023-12-23,0.0
2023-12-24,0.0
2023-12-25,0.00011785726309107912
2023-12-26,-0.0003846694103478737
2023-12-27,0.001807876613580976
2023-12-28,0.0003755129917226474
2023-12-29,0.000830170122531684
2023-12-30,-3.7109999999999995e-05
2023-12-31,0.0
2024-01-01,0.00020156655962318457
2024-01-02,-0.000432321703518629
2024-01-03,0.0006504615385590142
2024-01-04,-3.697808170931402e-05
2024-01-05,-3.097828290893277e-05
2024-01-06,-5.08e-05
2024-01-07,-4.1569816081945925e-05
2024-01-08,0.0004181950527849633
2024-01-09,-0.0007845279120205067
2024-01-10,0.00023788672861116303
2024-01-11,-0.0002194528297606256
2024-01-12,-0.0002890338371011258
2024-01-13,-2.47e-05
2024-01-14,-2.4327404728874295e-05
2024-01-15,-0.00020897339762351042
2024-01-16,-7.2613357113753e-05
2024-01-17,-0.00032060001069384884
2024-01-18,-0.001129129632678057
2024-01-19,-0.0001781303794410884
2024-01-20,0.0
2024-01-21,2.5675807359049875e-05
2024-01-22,0.0001283215269382575
2024-01-23,-0.00020345659777397946
2024-01-24,0.001322933142778347
2024-01-25,-0.0008267461387633729
2024-01-26,0.0008381498595581698
2024-01-27,0.0
2024-01-28,7.233044531662148e-05
2024-01-29,-5.804016244835393e-05
2024-01-30,8.922265280394779e-06
2024-01-31,0.00035970190532027743
2024-02-01,0.00039088387655737136
2024-02-02,-0.0007752101557895019
2024-02-03,0.0
2024-02-04,0.00019415325242085586
2024-02-05,-0.000410285259242076
2024-02-06,-0.0004669243318497916
2024-02-07,-0.0011132929999769323
2024-02-08,0.00023470356810980885
2024-02-09,-0.000806422800729978
2024-02-10,0.0
2024-02-11,0.00015977019633855985
2024-02-12,-0.00026031582726224157
2024-02-13,-0.0008853875238509219
2024-02-14,-0.0002654820510010816
2024-02-15,0.00022569306917760284
2024-02-16,-0.0003384978646492767
2024-02-17,0.0
2024-02-18,-8.36825122237042e-06
2024-02-19,-0.00030091761412206146
2024-02-20,-0.0003128249435279134
2024-02-21,0.00026944341926298106
2024-02-22,-0.0003576966555688001
2024-02-23,-0.00024878765649509433
2024-02-24,-3.034e-05
2024-02-25,0.00016955774244245656
2024-02-26,0.0004813848348770873
2024-02-27,0.000167800072016169
2024-02-28,0.0010352824471023098
2024-02-29,-0.0007994188735854378
2024-03-01,-0.00033396155657945724
2024-03-02,0.0
2024-03-03,2.9187572720769393e-05
2024-03-04,-0.00017295235091363103
2024-03-05,0.000310592722409333
2024-03-06,-0.0011035058370506637
2024-03-07,-0.0006225053381934483
2024-03-08,-0.00010216020918480439
2024-03-09,-2.758e-05
2024-03-10,2.2215037199265938e-06
2024-03-11,0.0002277902261674694
2024-03-12,0.0001925237167609065
2024-03-13,-0.0004713280497344915
2024-03-14,-0.00023751043310997588
2024-03-15,0.0003772575135669369
2024-03-16,-5.0879999999999994e-05
2024-03-17,3.650586450799486e-05
2024-03-18,-0.0005643472245431693
2024-03-19,0.00023410131991329295
2024-03-20,-0.0011429007495990693
2024-03-21,-0.00036725571159976065
2024-03-22,0.0011209526813786945
2024-03-23,-2.334e-05
2024-03-24,-7.137720109163378e-06
2024-03-25,-0.0005567517005719918
2024-03-26,-0.0003478893869172181
2024-03-27,0.00014089768157903924
2024-03-28,0.00048770426214644495
2024-03-29,4.7515095613716754e-05
2024-03-30,-4.862e-05
2024-03-31,-0.00033100213088289247
2024-04-01,0.00021873863283777443
2024-04-02,-0.000692379580018356
2024-04-03,-0.0006969828930257298
2024-04-04,-7.105777013869139e-05
2024-04-05,0.0001473709563197729
2024-04-06,-1.795e-05
2024-04-07,0.00010136487965660372
2024-04-08,-0.00043244229526399165
2024-04-09,-0.0002537392915384366
2024-04-10,0.0009688227899751372
2024-04-11,0.0001221362922467519
2024-04-12,0.0003027245011691624
2024-04-13,-1.958e-05
2024-04-14,-3.11392908426241e-05
2024-04-15,-1.2282721565741594e-05
2024-04-16,-5.1205316558802624e-05
2024-04-17,-0.00012640107625258915
2024-04-18,0.00013575226119467185
2024-04-19,3.4586955746297436e-05
2024-04-20,-1.6449999999999997e-05
2024-04-21,0.00010794351035502523
2024-04-22,0.0002584870349045077
2024-04-23,-0.00016429964423180686
2024-04-24,0.00013055209296263754
2024-04-25,-4.262092017260983e-05
2024-04-26,0.00021432105742958416
2024-04-27,0.0
2024-04-28,-2.4693441765730936e-05
2024-04-29,-0.00010453745526128362
2024-04-30,-6.024983907076968e-05
2024-05-01,0.0001390137993115726
2024-05-02,-0.0005227917806101969
2024-05-03,-0.0005905765191257493
2024-05-04,-1.972e-05
2024-05-05,4.529286101012652e-05
2024-05-06,-2.1630236624592853e-05
2024-05-07,0.00024933970191934346
2024-05-08,-3.130008672758891e-05
2024-05-09,-0.0003038026916331971
2024-05-10,7.520129455862414e-05
2024-05-11,-1.825e-05
2024-05-12,8.772214958023166e-06
2024-05-13,-9.973776581109697e-05
2024-05-14,-0.00022637032442972098
2024-05-15,-0.0008586223942066161
2024-05-16,0.0001657128490422444
2024-05-17,0.00015410079676358155
2024-05-18,0.0
2024-05-19,5.395230728817047e-06
2024-05-20,-8.598527783410236e-05
2024-05-21,-5.56009225545994e-05
2024-05-22,0.0001640254268601149
2024-05-23,-7.048025000642915e-05
2024-05-24,-0.00020519457439395424
2024-05-25,-3.0480000000000003e-05
2024-05-26,-3.6069331265888076e-05
2024-05-27,9.202682479657142e-05
2024-05-28,7.59294924084284e-05
2024-05-29,0.00025280999457805544
2024-05-30,7.141529272379629e-05
2024-05-31,-0.00026098849522550007
2024-06-01,-2.247e-05
2024-06-02,3.595951614370582e-05
2024-06-03,0.00031454914418441784
2024-06-04,0.0006983939335946025
2024-06-05,-0.00039191847441679426
2024-06-06,0.00029198016424611373
2024-06-07,-0.0006616398661565628
2024-06-08,0.0
2024-06-09,6.730148107796442e-05
2024-06-10,5.819148635224039e-06
2024-06-11,-0.00020085849657568868
2024-06-12,0.0004003995442918763
2024-06-13,-5.092448138708911e-05
2024-06-14,-7.287657341168373e-05
2024-06-15,-1.7219999999999998e-05
2024-06-16,-4.123051448369995e-06
2024-06-17,5.110043237444261e-05
2024-06-18,9.960500664704655e-05
2024-06-19,2.3278093294194625e-05
2024-06-20,-0.00018574049353964345
2024-06-21,-0.0003379414021287724
2024-06-22,-1.703e-05
2024-06-23,-6.089064350028925e-05
2024-06-24,0.00015684792870753272
2024-06-25,-0.00016943670641849024
2024-06-26,-0.0003874698500698948
2024-06-27,-9.227035067140223e-05
2024-06-28,5.01778850315691e-05
2024-06-29,-6.555e-05
2024-06-30,1.7984321339093385e-05
2024-07-01,-0.0001271513514858344
2024-07-02,5.7800819386820976e-05
2024-07-03,0.0002803901424044289
2024-07-04,2.8147909332297395e-05
2024-07-05,0.0005051354070705606
2024-07-06,-2.8389999999999998e-05
2024-07-07,4.927197786673351e-05
2024-07-08,-0.0002609731424083646
2024-07-09,-8.80350922601006e-06
2024-07-10,-0.0003599122337450047
2024-07-11,0.00024376682307523218
2024-07-12,0.00019682316549685352
2024-07-13,-4.402e-05
2024-07-14,-0.00015395020019424177
2024-07-15,2.607551784621301e-05
2024-07-16,0.00012825146203942624
2024-07-17,0.0007395228148605373
2024-07-18,-0.0003467932516929806
2024-07-19,-0.00016298726868903095
2024-07-20,0.0
2024-07-21,7.925401186743637e-05
2024-07-22,-0.00037133640503016647
2024-07-23,-0.0001335213932862441
2024-07-24,0.00034398414336651937
2024-07-25,-8.171755313660579e-05
2024-07-26,-5.3413938677824154e-05
2024-07-27,0.0
2024-07-28,-6.549562535207624e-06
2024-07-29,9.299688831818675e-05
2024-07-30,-4.7155116970346635e-05
2024-07-31,-0.0002523213988698338
2024-08-01,8.355443923468461e-05
2024-08-02,-0.0006455698159135379
2024-08-03,0.0
2024-08-04,-5.570594072229236e-05
2024-08-05,-9.76898241584762e-05
2024-08-06,-0.0005193936096768245
2024-08-07,-5.3723635555175884e-05
2024-08-08,2.4971529161164592e-05
2024-08-09,4.8136960952399943e-05
2024-08-10,0.0
2024-08-11,2.231298635066721e-06
2024-08-12,-0.00011301060281048942
2024-08-13,-9.561924812807936e-05
2024-08-14,0.0001536967113217362
2024-08-15,0.00015440693573366064
2024-08-16,-0.0001229711267007998
2024-08-17,0.0
2024-08-18,-4.579195218462763e-06
2024-08-19,-0.00016794521661010585
2024-08-20,-0.0001274499399128435
2024-08-21,3.924486368160423e-05
2024-08-22,7.406709084933352e-05
2024-08-23,4.285168870103771e-05
2024-08-24,0.0
2024-08-25,2.892315761408012e-06
2024-08-26,1.0015600005065888e-05
2024-08-27,7.115878197446429e-05
2024-08-28,-0.0002675324087440799
2024-08-29,-0.0016162400240767605
2024-08-30,7.355353337373874e-05
2024-08-31,0.0
2024-09-01,-0.0001977151609364612
2024-09-02,-0.00033608783531649013
2024-09-03,0.0024035608404557565
2024-09-04,0.0006986295783980715
2024-09-05,-0.000542916335110322
2024-09-06,0.0022200452255358707
2024-09-07,0.0
2024-09-08,-0.00014450551185243155
2024-09-09,-0.0006822743905386349
2024-09-10,0.000743388754976524
2024-09-11,-0.0017518519912879636
2024-09-12,-0.0006500331016742361
2024-09-13,0.0008341179048732719
2024-09-14,-4.8939999999999996e-05
2024-09-15,7.405573399701603e-05
2024-09-16,0.0004838364532020686
2024-09-17,-0.0005524698285267457
2024-09-18,-9.160794741634171e-05
2024-09-19,-0.0004259568061688124
2024-09-20,-0.00018759388195871914
2024-09-21,0.0
2024-09-22,-0.0001684574911149223
2024-09-23,0.0003267803534920626
2024-09-24,-0.0006807394417202523
2024-09-25,-0.0005792124949440457
2024-09-26,0.0009325535617828964
2024-09-27,0.0010395242028174699
2024-09-28,0.0
2024-09-29,-0.0002730923646063377
2024-09-30,-0.0007731861877922407
2024-10-01,-0.00032418028101513437
2024-10-02,-0.000575468821614028
2024-10-03,-0.0001625163555759992
2024-10-04,-0.0007884925895301747
2024-10-05,0.0
2024-10-06,-0.00011964388379795465
2024-10-07,0.0013384844009650498
2024-10-08,-0.0003496442508078419
2024-10-09,0.00016037796035671048
2024-10-10,0.0009644409065080631
2024-10-11,-6.479451259938743e-05
2024-10-12,0.0
2024-10-13,-5.0584786365422366e-06
2024-10-14,-0.0006975936478254953
2024-10-15,-3.836208394432993e-05
2024-10-16,-0.000989220223183319
2024-10-17,0.0002434229566491504
2024-10-18,0.0003025452702947548
2024-10-19,0.0
2024-10-20,0.00011899444025017629
2024-10-21,-0.0012283191958704968
2024-10-22,0.0004141215466713716
2024-10-23,-0.001132418706164547
2024-10-24,0.0002770908856008509
2024-10-25,3.110623806555235e-05
2024-10-26,-2.313e-05
2024-10-27,-0.00017629157956109074
2024-10-28,-3.844905623685831e-05
2024-10-29,-0.0001537824648325992
2024-10-30,0.00013349992369493917
2024-10-31,0.0002473830779846962
2024-11-01,-0.00044992102221200225
2024-11-02,0.0
2024-11-03,5.234956081986763e-05
2024-11-04,0.00026160412676721383
2024-11-05,-0.0003609924951135581
2024-11-06,-3.7676641784338336e-05
2024-11-07,9.989894586068516e-05
2024-11-08,-0.0006329545269715766
2024-11-09,0.0
2024-11-10,-1.2989611551738683e-05
2024-11-11,-0.0004020376347108171
2024-11-12,-0.0004588949489576698
2024-11-13,-0.00014879187546069534
2024-11-14,-0.00024253777010666138
2024-11-15,0.00025015477079221325
2024-11-16,0.0
2024-11-17,-7.706826808136557e-06
2024-11-18,0.0003900391138289741
2024-11-19,-8.28865848740598e-05
2024-11-20,-8.440935186889299e-05
2024-11-21,-4.6834660531410986e-05
2024-11-22,-0.0006771434902369878
2024-11-23,0.0
2024-11-24,0.0002936788591105429
2024-11-25,0.0006102294450733455
2024-11-26,-9.383018217661359e-05
2024-11-27,0.0001512258733343987
2024-11-28,2.1012290917807952e-05
2024-11-29,5.048886493109998e-05
2024-11-30,0.0
2024-12-01,-9.360433291652461e-05
2024-12-02,-0.00044215901017946347
2024-12-03,6.547062482810878e-05
2024-12-04,0.0006372238303082032
2024-12-05,-0.00023565270591384237
2024-12-06,0.0018113276451988593
2024-12-07,-3.176e-05
2024-12-08,-0.0001923088877590243
2024-12-09,-6.141038862429019e-05
2024-12-10,-0.0001360781413761408
2024-12-11,-0.0002883256098858033
2024-12-12,-0.0009055354573700273
2024-12-13,-0.00012682177653770805
2024-12-14,0.0
2024-12-15,-4.007463474871889e-05
2024-12-16,-0.0007619932201607329
2024-12-17,0.0015403241330363918
2024-12-18,0.003025930009166735
2024-12-19,-0.0002572681058452841
2024-12-20,-7.286954352690196e-05
2024-12-21,0.0
2024-12-22,-0.0001081364115564418
2024-12-23,-0.000543762179577399
2024-12-24,-0.0003411994489365477
2024-12-25,3.9001553999679303e-05
2024-12-26,0.0007169637385109995
2024-12-27,-0.0006095133278972415
2024-12-28,0.0
2024-12-29,-0.00019754107153568116
2024-12-30,-0.0003429537298325476
2024-12-31,0.0006322011844660544
2025-01-01,-0.00014327600840711847
2025-01-02,1.8615943725159756e-05
2025-01-03,0.00020894742100065363
2025-01-04,0.0
2025-01-05,-0.000272085655106293
2025-01-06,-0.0007381873870013363
2025-01-07,-0.00036668197603828215
2025-01-08,5.492962138908353e-05
2025-01-09,0.00012108664908600233
2025-01-10,0.0006958046798388943
2025-01-11,0.0
2025-01-12,-0.00029206485664444887
2025-01-13,-0.0011902935123921244
2025-01-14,0.00024511631348710637
2025-01-15,-0.0009488380557511259
2025-01-16,0.001069969446152631
2025-01-17,0.000535699908242511
2025-01-18,0.0
2025-01-19,-0.00016682745775798726
2025-01-20,-0.0022745710235940243
2025-01-21,0.0006624731339832663
2025-01-22,0.0001939563031912139
2025-01-23,-0.0005527309657380218
2025-01-24,-0.000964787460617689
2025-01-25,-9.243999999999999e-05
2025-01-26,0.00035664535996430283
2025-01-27,0.0008335043960822924
2025-01-28,6.506043957472322e-05
2025-01-29,-0.00025841391848773713
2025-01-30,0.0004456723851122818
2025-01-31,-3.396354379626378e-05
2025-02-01,0.0
2025-02-02,0.0013602671477764639
2025-02-03,-0.001973796274058858
2025-02-04,5.177619637905138e-05
2025-02-05,-7.477162447051082e-05
2025-02-06,-0.0004183448274576726
2025-02-07,-0.00017500894366025458
2025-02-08,0.0
2025-02-09,0.00018193365985287732
2025-02-10,3.3809079307272935e-05
2025-02-11,-0.0007074995703187305
2025-02-12,0.00020546383351833074
2025-02-13,-9.629628091170639e-05
2025-02-14,-0.00037219423139013254
2025-02-15,0.0
2025-02-16,-6.082076843534121e-05
2025-02-17,-5.3185648827113964e-05
2025-02-18,-7.312912298730243e-05
2025-02-19,0.00014595585255857023
2025-02-20,-0.0005758620446381026
2025-02-21,0.000607644653033101
2025-02-22,0.0
2025-02-23,-0.0002444296879067066
2025-02-24,0.0006578991157449111
2025-02-25,0.000131618101116231
2025-02-26,0.00048180807722007893
2025-02-27,0.0010152284666385867
2025-02-28,0.00021700251480313244
2025-03-01,0.0
2025-03-02,-0.00012900149327385924
2025-03-03,0.00033895557455574006
2025-03-04,-0.0006137549151131001
2025-03-05,-0.0013670969658341856
2025-03-06,0.00012682489012039999
2025-03-07,0.000491032184277521
2025-03-08,0.0
2025-03-09,0.0001085311813392087
2025-03-10,7.690745006284283e-05
2025-03-11,-0.0002357872276791778
2025-03-12,-0.00025553502163422115
2025-03-13,0.00033014274689673105
2025-03-14,-0.0005234674781925591
2025-03-15,0.0
2025-03-16,6.087376134016524e-06
2025-03-17,-0.0005369163857782632
2025-03-18,0.0001947627516096373
2025-03-19,5.3483400273415646e-05
2025-03-20,0.00016380463867610905
2025-03-21,0.00019367856387894806
2025-03-22,0.0
2025-03-23,-0.0001140340342853763
2025-03-24,0.00011328783961862929
2025-03-25,-0.00010066772351086716
2025-03-26,7.161190802530557e-05
2025-03-27,-4.823706024496771e-05
2025-03-28,0.00034371675830481156
2025-03-29,0.0
2025-03-30,3.638947697478719e-05
2025-03-31,0.00041480376609433775
2025-04-01,-0.0009219692778726769
2025-04-02,0.0007594264061348428
2025-04-03,0.0010129883345289005
2025-04-04,0.002983646998401099
2025-04-05,-1.932e-05
2025-04-06,0.001780616175812919
2025-04-07,-0.0009517353200736142
2025-04-08,0.002006934993916467
2025-04-09,-0.003677709619838973
2025-04-10,0.0020436290308036564
2025-04-11,-0.0005942031440248909
2025-04-12,0.0
2025-04-13,-0.00043577441032479106
2025-04-14,-3.2331753716345805e-06
2025-04-15,-0.0006243542545728874
2025-04-16,-1.730824658910263e-05
2025-04-17,-0.0009612720222349191
2025-04-18,0.0006548615371641878
2025-04-19,0.0
2025-04-20,6.329812647963096e-05
2025-04-21,-4.03345269923696e-05
2025-04-22,-0.0014000096319645055
2025-04-23,-0.00023637767453034078
2025-04-24,-0.00036299174167224544
2025-04-25,0.00026248386375292204
2025-04-26,0.0
2025-04-27,0.0001118404302776948
2025-04-28,0.0003459087998237448
2025-04-29,0.00022956478330300593
2025-04-30,-0.0004969366192885787
2025-05-01,4.281283634081173e-05
2025-05-02,-0.0003933865421543459
2025-05-03,0.0
2025-05-04,0.0002919435727523307
2025-05-05,4.8004708917942656e-05
2025-05-06,-0.0010768224330366877
2025-05-07,0.0011918507600714007
2025-05-08,-0.00027445809924216504
2025-05-09,-0.00013098957908844026
2025-05-10,0.0
2025-05-11,-0.0004170114033978407
2025-05-12,-0.0006026362424481721
2025-05-13,0.0001452174224834592
2025-05-14,0.00024262495834445445
2025-05-15,0.0014587923756884825
2025-05-16,-0.0006358514647466268
2025-05-17,0.0
2025-05-18,0.00042519476569470913
2025-05-19,-0.00033903578590309787
2025-05-20,0.0018483227000444535
2025-05-21,0.0003757071859146979
2025-05-22,-0.0004527983765880839
2025-05-23,0.0003462356649871249
2025-05-24,0.0
2025-05-25,-0.0002277722684341657
2025-05-26,0.0005484619776266139
2025-05-27,-0.0008551371506994984
2025-05-28,-0.0012509386394360359
2025-05-29,0.0021744002926539973
2025-05-30,-0.000162820349662617
2025-05-31,0.0
2025-06-01,-3.8306272304726004e-05
2025-06-02,0.0005902360654122967
2025-06-03,-0.0005133298075418261
2025-06-04,0.0001908675492334318
2025-06-05,-0.0006780684077595592
2025-06-06,9.75970159014049e-05
2025-06-07,0.0
2025-06-08,-5.22471939725948e-05
2025-06-09,-0.0006271713585170281
2025-06-10,-0.00021831921089691416
2025-06-11,0.0009231701686751021
2025-06-12,0.0016543129162649426
2025-06-13,-5.765007697532113e-05
2025-06-14,-3.0419999999999997e-05
2025-06-15,-0.00022467150485267382
2025-06-16,-0.0005546151978073744
2025-06-17,-0.0005666656773879048
2025-06-18,-0.0007569308877801046
2025-06-19,0.0011125598009791818
2025-06-20,0.00033263402539371605
2025-06-21,0.0
2025-06-22,2.1007173302333974e-06
2025-06-23,0.000868671456875426
2025-06-24,0.001350146826932547
2025-06-25,0.00011043037610511172
2025-06-26,0.0003647346856218297
2025-06-27,0.000633607585604436
2025-06-28,-3.223e-05
2025-06-29,6.431015129544542e-05
2025-06-30,0.0002994861527099435
2025-07-01,0.0003986202263583291
2025-07-02,-0.00044282947458890875
2025-07-03,-0.0004472913166788991
2025-07-04,0.0003913091824460558
2025-07-05,0.0
2025-07-06,0.00010175454050510389
2025-07-07,-3.855549111775542e-05
2025-07-08,-5.969632201110279e-06
2025-07-09,0.0005745986918589666
2025-07-10,-0.001873169665784559
2025-07-11,0.00017597526819696383
2025-07-12,0.0
2025-07-13,-3.060681398779622e-05
2025-07-14,7.937923991676433e-05
2025-07-15,-0.0005871106452067917
2025-07-16,0.00017393277718981702
2025-07-17,-0.00024088431696274543
2025-07-18,0.0001251338966037972
2025-07-19,-2.1059999999999998e-05
2025-07-20,0.0001236536052421692
2025-07-21,0.00047050675922947875
2025-07-22,0.0005530794108125036
2025-07-23,-0.00025268610503737464
2025-07-24,-0.00037678824545730457
2025-07-25,0.0003729210833263169
2025-07-26,-2.7300000000000003e-05
2025-07-27,-8.604206176416846e-05
2025-07-28,-0.001444470503371474
2025-07-29,-0.0004537733106031207
2025-07-30,-0.0011191441776770444
2025-07-31,0.0002227725548338625
2025-08-01,0.001987551096146626
2025-08-02,0.0
2025-08-03,-1.1038543051388707e-05
2025-08-04,-0.0007811419668758188
2025-08-05,7.577604832300073e-05
2025-08-06,2.570172324120384e-06
2025-08-07,-0.00047473940319474187
2025-08-08,-0.0005793223626877617
2025-08-09,0.0
2025-08-10,0.0002853618450080023
2025-08-11,-0.0010335395145833438
2025-08-12,0.0013004942797043774
2025-08-13,0.00015409475417921533
2025-08-14,7.89934026538389e-06
2025-08-15,0.00029509560064830035
2025-08-16,0.0
2025-08-17,-1.3821178606558005e-05
2025-08-18,-0.000224714580479134
2025-08-19,0.0003795248663476448
2025-08-20,0.0013720543964257017
2025-08-21,-0.000946933552051571
2025-08-22,0.0009802704906316819
2025-08-23,-2.298e-05
2025-08-24,-0.0001984859233374224
2025-08-25,-0.0010019826718647717
2025-08-26,0.0003744915567044044
2025-08-27,0.0001658866265343547
2025-08-28,-0.00020779572977992994
2025-08-29,0.00016121301034234916
2025-08-30,0.0
2025-08-31,-9.144833002275284e-06
2025-09-01,0.000169774145499672
2025-09-02,-0.0012208627009289888
2025-09-03,0.00033389860946570886
2025-09-04,-5.2462215265241044e-05
2025-09-05,0.001518141255818534
2025-09-06,0.0
2025-09-07,-0.0002554671522443397
2025-09-08,0.0011541900011996016
2025-09-09,-0.0011064091543846889
2025-09-10,-0.0005723598110619814
2025-09-11,0.00016171092083508374
2025-09-12,0.00011960276099088454
2025-09-13,0.0
2025-09-14,-5.9174032143323484e-05
2025-09-15,0.000192154074960123
2025-09-16,0.0020523479445495305
2025-09-17,-6.226590167077614e-05
2025-09-18,-0.0005601377535287724
2025-09-19,-0.0006296238369119687
2025-09-20,0.0
2025-09-21,-0.00013983928058678463
2025-09-22,0.001016613575656375
2025-09-23,0.00040179860659749416
2025-09-24,-0.000541539292748156
2025-09-25,-0.0007214550850557046
2025-09-26,0.000474463321340179
2025-09-27,0.0
2025-09-28,7.342903688708891e-05
2025-09-29,-0.00012804350934731342
2025-09-30,-5.601663280541064e-05
2025-10-01,-0.00027950425806691715
2025-10-02,9.128621948681291e-05
2025-10-03,0.00036775377930855314
2025-10-04,-2.331e-05
2025-10-05,-0.00042316093927880356
2025-10-06,0.00019294609506794323
2025-10-07,-0.0006772220484191219
2025-10-08,-0.0006116685001039816
2025-10-09,-0.0009000027974129449
2025-10-10,0.001983836851535542
2025-10-11,-2.656e-05
2025-10-12,-0.0009198195621688424
2025-10-13,-0.0004429876214073011
2025-10-14,0.0007693885702024754
2025-10-15,0.0010286254278610016
2025-10-16,0.000991947229459569
2025-10-17,-0.0005600362310435177
2025-10-18,0.0
2025-10-19,-0.00010692738998811151
2025-10-20,-3.580459765310382e-05
2025-10-21,-0.0008276604814419044
2025-10-22,0.00021033590489172934
2025-10-23,-0.00014117652830479457
2025-10-24,2.0166030391099234e-05
2025-10-25,0.0
2025-10-26,-0.0003406902213193322
2025-10-27,2.079582660307858e-07
2025-10-28,0.00022322091484983046
2025-10-29,-0.0015075234768574613
2025-10-30,-7.795159288465753e-05
2025-10-31,-0.00043117825781436713
2025-11-01,0.0
2025-11-02,-8.531036037337689e-05
2025-11-03,-0.00045481992475416465
2025-11-04,0.0009952747270317896
2025-11-05,-0.0003733929530765623
2025-11-06,0.0013538489432484862
2025-11-07,0.0003126432376733783
2025-11-08,0.0
2025-11-09,-0.0005396606527676999
2025-11-10,4.4153547484181995e-06
2025-11-11,0.001109591069130482
2025-11-12,0.0005246623053321616
2025-11-13,0.001349802569520527
2025-11-14,-0.0006764090330412313
2025-11-15,0.0
2025-11-16,1.0389765027519522e-05
2025-11-17,1.6011527319570597e-06
2025-11-18,-0.00109601360943043
2025-11-19,-0.0005012902741650018
2025-11-20,0.00048808625458188253
2025-11-21,-0.0010807856007493347
2025-11-22,0.0
2025-11-23,-9.883525810701413e-05
2025-11-24,2.431017060275871e-05
2025-11-25,-0.00010671217161124438
2025-11-26,-0.0008048163189052379
2025-11-27,-0.0007361286545899675
2025-11-28,0.00017686724673468424
2025-11-29,0.0
2025-11-30,-0.00011537201054463483
2025-12-01,-9.11362101144922e-05
2025-12-02,7.1340920648251e-05
2025-12-03,-5.279334051663101e-05
2025-12-04,-0.0007522258223269439
2025-12-05,-0.0007109581320124015
2025-12-06,-2.294e-05
2025-12-07,4.246576018866849e-05
2025-12-08,-0.00040583852914779475
2025-12-09,3.832359003286678e-05
2025-12-10,0.0006888185654936367
2025-12-11,0.0012392953378129814
2025-12-12,-0.000206500349211409
2025-12-13,-3.3421305319529944e-05
2025-12-14,0.0006395685932752402
2025-12-15,-0.0018312625662970127
2025-12-16,0.0017361243157953364
2025-12-17,-0.001771161230900141
2025-12-18,-0.00076039755999008
2025-12-19,0.003028459259954213
2025-12-20,0.00025503033891587367
2025-12-21,0.00039754644586946774
2025-12-22,-0.0003212333151156178
2025-12-23,0.00011300795582713045
2025-12-24,0.00034031098550008304
2025-12-25,-0.0006342273888427153
2025-12-26,4.3931286050620165e-05
2025-12-27,0.0005661469218081638
2025-12-28,0.0001468551887555356
2025-12-29,-0.0005720512581262774
2025-12-30,0.0011519476960453836
2025-12-31,0.0014901452912483512
2026-01-01,-0.0013332776730003606
2026-01-02,-0.0015744873343492014
2026-01-03,-0.0006973267510763215
2026-01-04,-0.0008834327036919915
2026-01-05,-0.0031217144114598057
2026-01-06,-0.0002871929057280279
2026-01-07,0.0024509659345495942
2026-01-08,0.00050893076178023
2026-01-09,0.0005514984039442045
2026-01-10,0.00013760433015582718
2026-01-11,-0.0005536278548827455
2026-01-12,-0.0004252530259179252
2026-01-13,-0.004637983080419188
2026-01-14,-0.0016006832318078252
2026-01-15,-0.0007101508228622083
2026-01-16,-6.717918086190647e-05
2026-01-17,0.0
2026-01-18,0.0005110996781778258
2026-01-19,-0.00036496558400053595
2026-01-20,0.0010085143260013692
2026-01-21,-0.0015579547326679895
2026-01-22,-0.00017784183030068523
2026-01-23,0.0007652883033169277
2026-01-24,-3.071e-05
2026-01-25,0.00032758114761070775
2026-01-26,9.682491169754713e-05
2026-01-27,0.0018083504476292666
2026-01-28,-0.0009349701442456268
2026-01-29,6.829820205164931e-05
2026-01-30,-0.0008786755200888387
2026-01-31,0.0
2026-02-01,-5.171669954479681e-05
2026-02-02,-0.0008667732806925507
2026-02-03,0.0004331748007975737
2026-02-04,8.73851737093136e-05
2026-02-05,0.0004370559168690678
2026-02-06,-0.00014854681474486776
2026-02-07,0.0
2026-02-08,-0.00010390560875155568
2026-02-09,0.0012216485133914714
2026-02-10,-0.00018183388907272495
2026-02-11,-0.00032705584639421993
2026-02-12,0.0004308919530298788
2026-02-13,0.00021076774257527533
2026-02-14,0.0
2026-02-15,-8.80812732068552e-05
2026-02-16,-0.0001477577958389722
2026-02-17,-3.3746033977908674e-05
2026-02-18,0.00025162444155673073
2026-02-19,-0.0004949847913177886
2026-02-20,-0.00010686507084647181
2026-02-21,0.0
2026-02-22,0.00045660208137466673
2026-02-23,-0.00011903658313543946
2026-02-24,7.288455082843717e-05
2026-02-25,4.4680253597657155e-05
2026-02-26,-1.2429528292013338e-05
2026-02-27,0.0005900047120442615
2026-02-28,0.0
2026-03-01,4.929031908418404e-05
2026-03-02,-0.0013970953010179158
2026-03-03,-0.0004513115100271842
2026-03-04,0.00016606266848572974
2026-03-05,-0.00032715747529731275
2026-03-06,0.00044997196897005927
2026-03-07,0.0
2026-03-08,-0.0006048517645641774
2026-03-09,0.0004009709745557524
2026-03-10,0.0003583835501899808
2026-03-11,-3.8523785753209294e-05
2026-03-12,-0.0005061794404954895
2026-03-13,-0.00047634391786232543
2026-03-14,0.0
2026-03-15,0.0001553594576716954
2026-03-16,5.003932200430737e-05
2026-03-17,0.000813407269177624
2026-03-18,-0.0010909801278421705
2026-03-19,0.0001026063534792842
2026-03-20,0.0001389781545793075
2026-03-21,0.0
2026-03-22,-0.00014107750193390232
2026-03-23,-0.000124020718988826
2026-03-24,-5.0938597820870436e-05
2026-03-25,-0.0004536966291551774
2026-03-26,-0.00038230499282510547
2026-03-27,-0.0003645631823132363
2026-03-28,0.0
2026-03-29,-0.0001316092085650891
2026-03-30,0.00023583817282414263
2026-03-31,6.627101007986635e-05
2026-04-01,0.0005153350566818258
2026-04-02,4.033047311487252e-05
2026-04-03,0.0001273695033377613
2026-04-04,0.0
2026-04-05,-0.0002968277450118285
2026-04-06,-0.0002448114329619681
2026-04-07,-0.0006306730866077344
2026-04-08,-0.0008575954121759112
2026-04-09,-0.00036407845199977517
2026-04-10,0.00019124006599171547
2026-04-11,-3.51e-05
2026-04-12,1.6118534512932908e-05
2026-04-13,9.217853190362347e-05
2026-04-14,-0.00022628644623058517
2026-04-15,6.997988292638564e-05
2026-04-16,0.00011793550768027709
2026-04-17,0.00033182782405182204
2026-04-18,-4.465e-05
2026-04-19,0.00010023378078363824
2026-04-20,-0.0004774193182636629
2026-04-21,-2.8866713136303923e-05
2026-04-22,-0.0005103972896851592
2026-04-23,0.0010340363466626546
2026-04-24,-0.0006758651971235033
2026-04-25,0.0
2026-04-26,0.00013535019409669673
2026-04-27,-0.0005984864956337108
2026-04-28,0.00023693189050575823
2026-04-29,0.00041076003682271017
2026-04-30,0.00015390117245746022
2026-05-01,8.472766853548303e-05
2026-05-02,-6.620000000000001e-05
2026-05-03,-3.889151637683154e-05
2026-05-04,0.00013393415199624572
2026-05-05,-0.00031190691814651783
2026-05-06,-0.00014202272464766151
2026-05-07,-0.00015806604394052787
2026-05-08,0.0003915172071768382
2026-05-09,-2.293e-05
2026-05-10,-4.116969264270794e-05
2026-05-11,-0.00034227454887124673
2026-05-12,-3.1215620456988655e-05
2026-05-13,0.00020558097209755338
2026-05-14,-0.00016934310531541207
2026-05-15,0.00028670327402750573
2026-05-16,-2.364e-05
2026-05-17,-6.136608989040426e-05
2026-05-18,-0.00010935427209299394
2026-05-19,-0.00030036610797795735
2026-05-20,-0.00014439603706772856
2026-05-21,-0.0002753154389086179
2026-05-22,0.00044913482712634654
2026-05-23,-1.979e-05
2026-05-24,-3.015994448586626e-06
2026-05-25,0.00017932736961927124
2026-05-26,0.00011924726319200819
2026-05-27,-0.001415396433881925
2026-05-28,-0.00040236070020437304
2026-05-29,0.00016980917687918538
2026-05-30,-1.973e-05
2026-05-31,-4.397091533637334e-05
2026-06-01,-0.00010317445335780442
2026-06-02,-5.3853053982309455e-06
2026-06-03,-0.00021702119616870223
2026-06-04,7.940619034576002e-05
2026-06-05,-0.0007012215812666827
2026-06-06,0.0
2026-06-07,4.617929869542653e-06
2026-06-08,-0.00015112428656931465
2026-06-09,-0.0003284892947095815
2026-06-10,-0.0003223257363833024
2026-06-11,0.00024517117226231463
2026-06-12,-0.00017033565875594397
2026-06-13,-1.436e-05
2026-06-14,0.00017413041271288697
2026-06-15,0.000194685463407278
2026-06-16,-4.0834581836545485e-05
2026-06-17,1.534132732348956e-05
2026-06-18,-9.809569771421091e-05
2026-06-19,-0.00015489080335609928
2026-06-20,0.0
2026-06-21,-1.9546113357138603e-05
2026-06-22,-3.764552928051353e-05
2026-06-23,-0.0004225457928371932
2026-06-24,-8.668527131429704e-05
2026-06-25,1.7040182642036165e-05
2026-06-26,-0.000157788031667492
2026-06-27,-1.852e-05
2026-06-28,6.276868836358601e-06
2026-06-29,-0.00034628281551995794
2026-06-30,0.00021735246206965075
2026-07-01,-0.00011414535223270203
2026-07-02,-0.00013304302276148351
2026-07-03,0.00012857883067226935
2026-07-04,0.0
2026-07-05,4.2430907363246576e-05
2026-07-06,0.00020359568052897388
2026-07-07,-0.000167430277447599
2026-07-08,-0.00018567002553853502
2026-07-09,-0.0003233814928596419
2026-07-10,8.146359327994404e-05
2026-07-11,-1.4710000000000001e-05
2026-07-12,-4.764688263541575e-06
2026-07-13,-0.0002653093212438243
2026-07-14,-0.0002432864558084783
2026-07-15,4.296938869988292e-06
2026-07-16,-4.7469384785334064e-05
2026-07-17,-0.00022938727925575885
2026-07-18,0.0
2026-07-19,4.1071438019193426e-05
2026-07-20,0.0002194088466789971
2026-07-21,0.00035746015659640146
2026-07-22,-9.97176451063088e-05
2026-07-23,0.00029729453501432064
2026-07-24,5.45590012041592e-05
2026-07-25,0.0
2026-07-26,-7.224640895700132e-05
2026-07-27,0.00033750091200641886
2026-07-28,-0.0003320492810821705
2026-07-29,-0.0007201347217367445
2026-07-30,-0.0003222265390263842
2026-07-31,0.0001225457380438609
2026-08-01,-2.5019999999999998e-05
2026-08-02,8.361565632883544e-05
2026-08-03,-0.00022511493311201742
2026-08-04,0.00036804308318833933
2026-08-05,-0.00016381425595766297
2026-08-06,6.629227995373189e-05
2026-08-07,-6.661512595402371e-05
2026-08-08,-3.695e-05
2026-08-09,1.3880773330600965e-05
2026-08-10,-5.093360932666966e-05
2026-08-11,8.393344512652636e-05
2026-08-12,0.0001451315992218904
2026-08-13,1.1894695337404646e-05
2026-08-14,-0.00011876254108857195
2026-08-15,-1.5089999999999998e-05
2026-08-16,1.0117142457758184e-05
2026-08-17,0.00011491041511652547
2026-08-18,-3.6007881345674125e-05
2026-08-19,-0.0003113390744694926
2026-08-20,-0.00021819561425448527
2026-08-21,0.00031325874573870073
2026-08-22,-1.915e-05
2026-08-23,2.912058622899226e-05
2026-08-24,-8.337443874978077e-05
