time,port_net
2020-01-01,0.0
2020-01-02,0.0
2020-01-03,0.0
2020-01-04,0.0
2020-01-05,0.0
2020-01-06,0.0
2020-01-07,0.0
2020-01-08,0.0
2020-01-09,0.0
2020-01-10,0.0
2020-01-11,0.0
2020-01-12,0.0
2020-01-13,0.0
2020-01-14,0.0
2020-01-15,0.0
2020-01-16,0.0
2020-01-17,0.0
2020-01-18,0.0
2020-01-19,0.0
2020-01-20,0.0
2020-01-21,0.0
2020-01-22,0.0
2020-01-23,0.0
2020-01-24,0.0
2020-01-25,0.0
2020-01-26,0.0
2020-01-27,0.0
2020-01-28,0.0
2020-01-29,0.0
2020-01-30,0.0
2020-01-31,0.0
2020-02-01,0.0
2020-02-02,0.0
2020-02-03,0.0
2020-02-04,0.0
2020-02-05,0.0
2020-02-06,0.0
2020-02-07,0.0
2020-02-08,0.0
2020-02-09,0.0
2020-02-10,0.0
2020-02-11,0.0
2020-02-12,0.0
2020-02-13,0.0
2020-02-14,0.0
2020-02-15,0.0
2020-02-16,0.0
2020-02-17,0.0
2020-02-18,0.0
2020-02-19,0.0
2020-02-20,0.0
2020-02-21,0.0
2020-02-22,0.0
2020-02-23,0.0
2020-02-24,0.0
2020-02-25,0.0
2020-02-26,0.0
2020-02-27,0.0
2020-02-28,0.0
2020-02-29,0.0
2020-03-01,0.0
2020-03-02,0.0
2020-03-03,0.0
2020-03-04,0.0
2020-03-05,0.0
2020-03-06,0.0
2020-03-07,0.0
2020-03-08,0.0
2020-03-09,0.0
2020-03-10,0.0
2020-03-11,0.0
2020-03-12,0.0
2020-03-13,0.0
2020-03-14,0.0
2020-03-15,0.0
2020-03-16,0.0
2020-03-17,0.0
2020-03-18,0.0
2020-03-19,0.0
2020-03-20,0.0
2020-03-21,0.0
2020-03-22,0.0
2020-03-23,0.0
2020-03-24,0.0
2020-03-25,0.0
2020-03-26,0.0
2020-03-27,0.0
2020-03-28,0.0
2020-03-29,0.0
2020-03-30,0.0
2020-03-31,0.0
2020-04-01,0.0
2020-04-02,0.0
2020-04-03,0.0
2020-04-04,0.0
2020-04-05,0.0
2020-04-06,0.0
2020-04-07,0.0
2020-04-08,0.0
2020-04-09,0.0
2020-04-10,0.0
2020-04-11,0.0
2020-04-12,0.0
2020-04-13,0.0
2020-04-14,0.0
2020-04-15,0.0
2020-04-16,0.0
2020-04-17,0.0
2020-04-18,0.0
2020-04-19,0.0
2020-04-20,0.0
2020-04-21,0.0
2020-04-22,0.0
2020-04-23,0.0
2020-04-24,0.0
2020-04-25,0.0
2020-04-26,0.0
2020-04-27,0.0
2020-04-28,0.0
2020-04-29,0.0
2020-04-30,0.0
2020-05-01,0.0
2020-05-02,0.0
2020-05-03,0.0
2020-05-04,0.0
2020-05-05,0.0
2020-05-06,0.0
2020-05-07,0.0
2020-05-08,0.0
2020-05-09,0.0
2020-05-10,0.0
2020-05-11,0.0
2020-05-12,0.0
2020-05-13,0.0
2020-05-14,0.0
2020-05-15,0.0
2020-05-16,0.0
2020-05-17,0.0
2020-05-18,0.0
2020-05-19,0.0
2020-05-20,0.0
2020-05-21,0.0
2020-05-22,0.0
2020-05-23,0.0
2020-05-24,0.0
2020-05-25,0.0
2020-05-26,0.0
2020-05-27,0.0
2020-05-28,0.0
2020-05-29,0.0
2020-05-30,0.0
2020-05-31,0.0
2020-06-01,0.0
2020-06-02,0.0
2020-06-03,0.0
2020-06-04,0.0
2020-06-05,0.0
2020-06-06,0.0
2020-06-07,0.0
2020-06-08,0.0
2020-06-09,0.0
2020-06-10,0.0
2020-06-11,0.0
2020-06-12,0.0
2020-06-13,0.0
2020-06-14,0.0
2020-06-15,0.0
2020-06-16,0.0
2020-06-17,0.0
2020-06-18,0.0
2020-06-19,0.0
2020-06-20,0.0
2020-06-21,0.0
2020-06-22,0.0
2020-06-23,0.0
2020-06-24,0.0
2020-06-25,0.0
2020-06-26,0.0
2020-06-27,0.0
2020-06-28,0.0
2020-06-29,0.0
2020-06-30,0.0
2020-07-01,0.0
2020-07-02,0.0
2020-07-03,0.0
2020-07-04,0.0
2020-07-05,0.0
2020-07-06,0.0
2020-07-07,0.0
2020-07-08,0.0
2020-07-09,0.0
2020-07-10,0.0
2020-07-11,0.0
2020-07-12,0.0
2020-07-13,0.0
2020-07-14,0.0
2020-07-15,0.0
2020-07-16,0.0
2020-07-17,0.0
2020-07-18,0.0
2020-07-19,0.0
2020-07-20,0.0
2020-07-21,0.0
2020-07-22,0.0
2020-07-23,0.0
2020-07-24,0.0
2020-07-25,0.0
2020-07-26,0.0
2020-07-27,0.0
2020-07-28,0.0
2020-07-29,0.0
2020-07-30,0.0
2020-07-31,0.0
2020-08-01,0.0
2020-08-02,0.0
2020-08-03,0.0
2020-08-04,0.0
2020-08-05,0.0
2020-08-06,0.0
2020-08-07,0.0
2020-08-08,0.0
2020-08-09,0.0
2020-08-10,0.0
2020-08-11,0.0
2020-08-12,0.0
2020-08-13,0.0
2020-08-14,0.0
2020-08-15,0.0
2020-08-16,0.0
2020-08-17,0.0
2020-08-18,0.0
2020-08-19,0.0
2020-08-20,0.0
2020-08-21,0.0
2020-08-22,0.0
2020-08-23,0.0
2020-08-24,0.0
2020-08-25,0.0
2020-08-26,0.0
2020-08-27,0.0
2020-08-28,0.0
2020-08-29,0.0
2020-08-30,0.0
2020-08-31,0.0
2020-09-01,0.0
2020-09-02,0.0
2020-09-03,0.0
2020-09-04,0.0
2020-09-05,0.0
2020-09-06,0.0
2020-09-07,0.0
2020-09-08,0.0
2020-09-09,-0.0004465
2020-09-10,0.003692006104342098
2020-09-11,0.0008836663036986353
2020-09-12,0.0003713758727236475
2020-09-13,-0.001504306906699451
2020-09-14,0.003292978516151978
2020-09-15,0.00046578966479909764
2020-09-16,-7.521906541847833e-06
2020-09-17,5.1235208881474996e-05
2020-09-18,-0.0003399775111505113
2020-09-19,0.0013049359467416145
2020-09-20,-0.0014328218704022814
2020-09-21,-0.004444128883276742
2020-09-22,-0.00033256453688743694
2020-09-23,-0.0036440130609834095
2020-09-24,0.0036222962956016106
2020-09-25,-0.0005487909874450786
2020-09-26,0.00037892315890837304
2020-09-27,0.0003416552057014429
2020-09-28,-0.00040012675672803836
2020-09-29,0.002224658563510825
2020-09-30,-0.001957757936005015
2020-10-01,-0.0011953186406217676
2020-10-02,-0.0009622960382410224
2020-10-03,-0.0002244289970208535
2020-10-04,0.0015547567385066777
2020-10-05,0.0012220767561684001
2020-10-06,-0.0011239937034461193
2020-10-07,0.0005873739607964041
2020-10-08,0.0017333225247436598
2020-10-09,0.0014419411294133429
2020-10-10,0.0022320677167321002
2020-10-11,0.0006033293738079005
2020-10-12,0.00090462711454702
2020-10-13,-0.0011807643949504885
2020-10-14,-0.0005355701290004606
2020-10-15,0.0016095114720030984
2020-10-16,-0.0021210272400632086
2020-10-17,0.00035509148531438496
2020-10-18,0.0011580916577260316
2020-10-19,0.002722821908946315
2020-10-20,0.0016093767652233546
2020-10-21,0.007036435412752038
2020-10-22,0.001245179034893745
2020-10-23,0.0007210713374520566
2020-10-24,0.0013186733272112284
2020-10-25,-0.0006504082082122382
2020-10-26,0.00015213205496121768
2020-10-27,0.004183762277612261
2020-10-28,-0.002591765741101837
2020-10-29,0.0005488558355422112
2020-10-30,-0.00017271549145092937
2020-10-31,0.0017485297630978726
2020-11-01,0.00010172334501684166
2020-11-02,-0.0020715272151545006
2020-11-03,0.004007057300208694
2020-11-04,0.0017345258697695186
2020-11-05,0.011010859496202764
2020-11-06,0.0006070628890173913
2020-11-07,-0.004860643122395036
2020-11-08,0.004367411957298137
2020-11-09,-0.00346454395518452
2020-11-10,-0.0006947276565563677
2020-11-11,0.002501829305880893
2020-11-12,0.004768594085292237
2020-11-13,0.0006507267041365424
2020-11-14,-0.0015280148318325027
2020-11-15,-0.000564688109840791
2020-11-16,0.0044532475835887975
2020-11-17,0.005970920015894024
2020-11-18,0.0004583632662110327
2020-11-19,0.00013267856711233832
2020-11-20,0.004916324335559132
2020-11-21,0.00014729714568837427
2020-11-22,-0.0013457908011642698
2020-11-23,-0.0005998772696146445
2020-11-24,0.004207045450369783
2020-11-25,-0.0019475761031710014
2020-11-26,-0.008562507364097638
2020-11-27,-0.000182413599350046
2020-11-28,0.003346952004825124
2020-11-29,0.0028136522708253568
2020-11-30,0.007789657080007316
2020-12-01,-0.00387680710456966
2020-12-02,0.0021680858582879404
2020-12-03,0.0016786463466060167
2020-12-04,-0.004197267318500189
2020-12-05,0.002557446168826976
2020-12-06,0.0012379171672825431
2020-12-07,-0.0012080211804980125
2020-12-08,-0.004623691816390101
2020-12-09,0.001234678286801179
2020-12-10,3.1568588750870295e-05
2020-12-11,-0.0009137221626386856
2020-12-12,0.004335153169716333
2020-12-13,0.001803219025828004
2020-12-14,0.00014734060970504533
2020-12-15,0.0009911485275680067
2020-12-16,0.010120118493259767
2020-12-17,0.007723622210653172
2020-12-18,0.0011432176978011935
2020-12-19,0.0031211494425721596
2020-12-20,-0.0020094174406804256
2020-12-21,-0.0035211601838146768
2020-12-22,0.004065285350414109
2020-12-23,-0.0016893085716807696
2020-12-24,0.0022147771059018236
2020-12-25,0.004063501404630369
2020-12-26,0.0071722198884435874
2020-12-27,-0.00047510441259706563
2020-12-28,0.0028125491038457065
2020-12-29,0.0015900638958516197
2020-12-30,0.006715840984382702
2020-12-31,-0.0001227791048112558
2021-01-01,0.0014255678802064318
2021-01-02,0.009548318927250632
2021-01-03,0.0029441777626629667
2021-01-04,-0.003377442492919145
2021-01-05,0.007470552213127264
2021-01-06,0.008794015744388177
2021-01-07,0.006077421918031667
2021-01-08,0.002525062265960057
2021-01-09,-0.000907799752412092
2021-01-10,-0.005784536589608901
2021-01-11,-0.0077215319312915085
2021-01-12,-0.0031760455231263285
2021-01-13,0.009305323058728495
2021-01-14,0.004845370793819592
2021-01-15,-0.007248234284747205
2021-01-16,-0.002013747114701949
2021-01-17,-0.0007334248963836267
2021-01-18,0.0023693680134324016
2021-01-19,-0.0016058985845676047
2021-01-20,-0.0006635736040340483
2021-01-21,-0.012705573925232343
2021-01-22,0.006460585530570321
2021-01-23,-0.0026250906674031294
2021-01-24,0.0005200174848745278
2021-01-25,-0.00014714018615729255
2021-01-26,0.0011826578086041727
2021-01-27,-0.007528444244806811
2021-01-28,0.01039653986721485
2021-01-29,0.0023657085310727715
2021-01-30,0.0001638983333936972
2021-01-31,-0.0036966677008502704
2021-02-01,0.0008548521888150766
2021-02-02,0.006035407450933461
2021-02-03,0.006100222350348213
2021-02-04,-0.0026740481426098806
2021-02-05,0.004373892045394718
2021-02-06,0.002550942610591545
2021-02-07,-0.0009749842682105794
2021-02-08,0.019738438710999888
2021-02-09,0.0008193942973924761
2021-02-10,-0.003841987504416717
2021-02-11,0.007209147391890251
2021-02-12,-0.0011980700923818828
2021-02-13,-0.0004115426940429602
2021-02-14,0.002962600162391972
2021-02-15,-0.0010135893317947417
2021-02-16,0.0017300001760870785
2021-02-17,0.005487186530640533
2021-02-18,-0.00032987319081024917
2021-02-19,0.008940565412116835
2021-02-20,-4.8760692580840376e-05
2021-02-21,0.003074162248857067
2021-02-22,-0.005547193084345551
2021-02-23,-0.009799246498476228
2021-02-24,0.0029947075943645403
2021-02-25,-0.006617555309731492
2021-02-26,-0.003733937843564125
2021-02-27,-0.00018105213908109485
2021-02-28,-0.0013132622555979089
2021-03-01,0.009557178632007831
2021-03-02,-0.0019558050308804173
2021-03-03,0.0027959724511429545
2021-03-04,-0.004641647471388347
2021-03-05,0.0007194358830282583
2021-03-06,0.0002484326280869143
2021-03-07,0.004340800017715049
2021-03-08,0.0025323210088047617
2021-03-09,0.0051610724440488386
2021-03-10,0.0021018801829663478
2021-03-11,0.003970381123611535
2021-03-12,-0.0011735842375733194
2021-03-13,0.006737357818281487
2021-03-14,-0.0034143500136468267
2021-03-15,-0.005625114099426603
2021-03-16,0.0023886664058971083
2021-03-17,0.004220596392996828
2021-03-18,-0.0033249586025522384
2021-03-19,0.0006129805400294366
2021-03-20,0.00017140599923118785
2021-03-21,-0.0016580154200492195
2021-03-22,-0.006142614791080354
2021-03-23,-0.0014088104355114497
2021-03-24,-0.004047747362042689
2021-03-25,-0.0015693562522997903
2021-03-26,0.008120021916018988
2021-03-27,0.0013543239525311789
2021-03-28,-7.271185949234905e-05
2021-03-29,0.0031600043870447956
2021-03-30,0.0017521833062606068
2021-03-31,0.0004284620538499762
2021-04-01,0.0003708095525464527
2021-04-02,0.00012480678502963696
2021-04-03,-0.0033078908530998767
2021-04-04,0.002346264352718354
2021-04-05,0.0016113982761108397
2021-04-06,-0.0035739680584928363
2021-04-07,-0.004969951661088895
2021-04-08,0.0037075590985259613
2021-04-09,-0.0002417337869316904
2021-04-10,0.0028385666661523657
2021-04-11,0.00040273651202252665
2021-04-12,-0.0006430213823634568
2021-04-13,0.006444672524634221
2021-04-14,0.0006708805339132775
2021-04-15,0.0004772392474483943
2021-04-16,-0.0028442033313950395
2021-04-17,-0.002281928257209887
2021-04-18,-0.006381073823395421
2021-04-19,-0.0012018972932381963
2021-04-20,0.0005862159790749453
2021-04-21,-0.003915770160637326
2021-04-22,-0.004927256366576847
2021-04-23,-0.0006052127401339198
2021-04-24,-0.002070450149903924
2021-04-25,-0.0020676652330492056
2021-04-26,0.011200782867369323
2021-04-27,0.0013572045637852445
2021-04-28,0.00027785164610787957
2021-04-29,-0.002625653195660781
2021-04-30,0.006524158008057327
2021-05-01,0.00018049261480048708
2021-05-02,-0.0019350153695917637
2021-05-03,0.0016371465114403386
2021-05-04,-0.007527138557244975
2021-05-05,0.009121432362558411
2021-05-06,-0.001684436374306064
2021-05-07,0.0020045040272341206
2021-05-08,0.0027071677135663166
2021-05-09,-0.000681686655426519
2021-05-10,-0.004258349143785341
2021-05-11,0.001892059986728813
2021-05-12,-0.01362572955964676
2021-05-13,-0.000717837938486275
2021-05-14,0.0011855244998117752
2021-05-15,-0.006271955735392543
2021-05-16,-0.0007317506751290942
2021-05-17,-0.0060018361813214596
2021-05-18,-0.001865813427045972
2021-05-19,-0.015122122775114462
2021-05-20,0.010950490304945808
2021-05-21,-0.008247001096972224
2021-05-22,0.0004400389918824077
2021-05-23,-0.007437736859397782
2021-05-24,0.012140978187318137
2021-05-25,-0.0013826877357698362
2021-05-26,0.0024070511398036924
2021-05-27,-0.0013908132179358058
2021-05-28,-0.007772080633345497
2021-05-29,-0.003056074325810643
2021-05-30,0.0030816825878049133
2021-05-31,0.004860029222313504
2021-06-01,-0.0019017072700123173
2021-06-02,0.002876456590108723
2021-06-03,0.0036350134247899314
2021-06-04,-0.0055892426953274565
2021-06-05,-0.0036143616501321807
2021-06-06,0.0007603456725863869
2021-06-07,-0.006266757335081975
2021-06-08,-0.0006901594771567482
2021-06-09,0.011780170372492614
2021-06-10,-0.0015653522226395302
2021-06-11,0.0012527776822162599
2021-06-12,-0.004914157010160592
2021-06-13,0.009776478238627314
2021-06-14,0.003907714959754762
2021-06-15,-0.0012556956187992937
2021-06-16,-0.005198025934942055
2021-06-17,-0.0014168715635515987
2021-06-18,-0.006938781958190019
2021-06-19,-0.000907191071060931
2021-06-20,0.00035593102582195767
2021-06-21,-0.010773188817805847
2021-06-22,0.003288373229762667
2021-06-23,0.0034538219152938387
2021-06-24,0.0025169920214006334
2021-06-25,-0.00877801807223323
2021-06-26,0.002139744616746153
2021-06-27,0.0076573615671442306
2021-06-28,-0.000891446431288575
2021-06-29,0.003483846516696428
2021-06-30,-0.0022704611907293486
2021-07-01,-0.00486162125430205
2021-07-02,0.0017903987812751593
2021-07-03,0.0026944087598631764
2021-07-04,0.0017004205151888072
2021-07-05,-0.004648853198182725
2021-07-06,0.0008991408363040089
2021-07-07,-0.0011825335582638919
2021-07-08,-0.0034957816945519337
2021-07-09,0.003775219236860402
2021-07-10,-0.0008884887433921907
2021-07-11,0.002192398096201844
2021-07-12,-0.003605015385628871
2021-07-13,-0.0017761193140559985
2021-07-14,6.125435180494822e-05
2021-07-15,-0.0033961724695265563
2021-07-16,-0.0019002183338371313
2021-07-17,0.0004731832533344954
2021-07-18,0.0005977733620754139
2021-07-19,-0.004475880693083225
2021-07-20,-0.0028112779332874894
2021-07-21,0.008767647234390514
2021-07-22,0.0009035140326309585
2021-07-23,0.004109346945039398
2021-07-24,0.0018351666081805496
2021-07-25,0.0032771895567141928
2021-07-26,0.0054327580268386305
2021-07-27,0.006027664627087417
2021-07-28,0.0017025660215507746
2021-07-29,0.0003901138455098687
2021-07-30,0.005212033933052604
2021-07-31,-0.0017823817001985211
2021-08-01,-0.003879682360101493
2021-08-02,-0.0021139583632105766
2021-08-03,-0.002656587500804731
2021-08-04,0.004099586506406706
2021-08-05,0.003158804609007717
2021-08-06,0.005222110955312865
2021-08-07,0.003961948126395054
2021-08-08,-0.0017433123060905445
2021-08-09,0.005736605585991209
2021-08-10,-0.0014723366543982716
2021-08-11,-0.0007328555121546397
2021-08-12,-0.002383892175686836
2021-08-13,0.006846056579595784
2021-08-14,-0.001501000211900677
2021-08-15,-0.0002800648120005584
2021-08-16,-0.0027908622561954462
2021-08-17,-0.002508378613976325
2021-08-18,0.00021724427000960756
2021-08-19,0.00470481559799609
2021-08-20,0.00540397061382576
2021-08-21,-0.0009641344813404951
2021-08-22,0.0009604381186970848
2021-08-23,-1.990447012945951e-05
2021-08-24,-0.004192145761370363
2021-08-25,0.002368404695633897
2021-08-26,-0.004540706039151287
2021-08-27,0.004759305187106775
2021-08-28,-0.0004077402831443186
2021-08-29,-0.000308750800773404
2021-08-30,-0.0034359278891820406
2021-08-31,0.00010160286723490857
2021-09-01,0.0035064515295008263
2021-09-02,0.001163267131724214
2021-09-03,0.0016792442191319956
2021-09-04,-0.00024138539021671958
2021-09-05,0.0036005968957750394
2021-09-06,0.001786696958828015
2021-09-07,-0.011476746472295659
2021-09-08,-0.0017741372369293436
2021-09-09,0.0008590735570305217
2021-09-10,-0.0032733974263942454
2021-09-11,0.0006574589148148443
2021-09-12,0.0017551213676144154
2021-09-13,-0.0022165559247228823
2021-09-14,0.005074457963380546
2021-09-15,0.002065250311037042
2021-09-16,-0.00038483178314218037
2021-09-17,-0.0008369260895857628
2021-09-18,0.002090996618739806
2021-09-19,-0.0021527192698808585
2021-09-20,-0.00933058978755183
2021-09-21,-0.005177798069429259
2021-09-22,0.007171642748594827
2021-09-23,0.0026503684629666227
2021-09-24,-0.004020625234103294
2021-09-25,-0.0004366002743299294
2021-09-26,0.0010814927572157362
2021-09-27,-0.0021538757081587087
2021-09-28,-0.0031212809850375265
2021-09-29,0.0009747183030598632
2021-09-30,0.0053226190467530006
2021-10-01,0.009666808425757858
2021-10-02,-0.0009561705937414345
2021-10-03,0.001117357496458603
2021-10-04,0.0020573102946353475
2021-10-05,0.004525191632352541
2021-10-06,0.00777293555095118
2021-10-07,-0.0029558561475237087
2021-10-08,0.0006671654454699967
2021-10-09,0.0018168362970347519
2021-10-10,-0.00043159493192510153
2021-10-11,0.004511255995647286
2021-10-12,-0.002198511465130611
2021-10-13,0.0017985568408961533
2021-10-14,-0.0003465761454024737
2021-10-15,0.007265870715940323
2021-10-16,-0.0013714587472655265
2021-10-17,0.0009112048279650669
2021-10-18,0.0006299744716863374
2021-10-19,-0.00426909316195082
2021-10-20,-0.003203169724334891
2021-10-21,0.0060741818166604265
2021-10-22,0.0019860308664797735
2021-10-23,0.001014270495781036
2021-10-24,-0.0008772241665425785
2021-10-25,-0.0016839757888366046
2021-10-26,-0.004570623527472824
2021-10-27,-0.003208163641843004
2021-10-28,0.003233108473508611
2021-10-29,0.0028606836253471904
2021-10-30,0.0006521154788693125
2021-10-31,0.0009042175230154273
2021-11-01,0.0004263530377920695
2021-11-02,0.004372181532510598
2021-11-03,-0.0007686195479137476
2021-11-04,-0.001976211922995156
2021-11-05,-0.0008114923657427265
2021-11-06,0.0009245120808586634
2021-11-07,0.0028238746065096534
2021-11-08,0.006773088786454742
2021-11-09,-0.0006038818729078451
2021-11-10,-0.002893113783564675
2021-11-11,-0.00015738025623854765
2021-11-12,-0.0012111144461134948
2021-11-13,0.0003490071130537244
2021-11-14,0.0017498685055703297
2021-11-15,-0.003021238039199253
2021-11-16,-0.005736100677284966
2021-11-17,0.0007147230388285744
2021-11-18,-0.005753237545887653
2021-11-19,0.002625892299499546
2021-11-20,0.0028014977481988206
2021-11-21,-0.001858548749327825
2021-11-22,-0.004364468912737321
2021-11-23,0.0023618689843597678
2021-11-24,-0.000530176239171739
2021-11-25,0.003463311833243372
2021-11-26,-0.007407310547357251
2021-11-27,0.0017431029248372255
2021-11-28,-0.00029883021472693196
2021-11-29,0.00021125457393449706
2021-11-30,0.0004898946472826558
2021-12-01,9.210675284406075e-05
2021-12-02,0.0002234629396661659
2021-12-03,0.0012094194566770044
2021-12-04,0.0
2021-12-05,-0.000205661629167579
2021-12-06,-0.0010730960207115286
2021-12-07,-0.00034487569755558005
2021-12-08,-1.724584517782897e-05
2021-12-09,-0.00018652896387322552
2021-12-10,-0.00019212786388367754
2021-12-11,0.0
2021-12-12,5.13297152672548e-05
2021-12-13,0.0002452328846850233
2021-12-14,-2.4824489906005064e-05
2021-12-15,-0.0007478610474558672
2021-12-16,0.0002457315159335781
2021-12-17,0.00025665363635750675
2021-12-18,0.0
2021-12-19,0.00017753171142344216
2021-12-20,-1.1248941412537577e-05
2021-12-21,-0.005040388466596113
2021-12-22,-0.00018705731696847672
2021-12-23,-0.004963212474711494
2021-12-24,0.00020086759441185895
2021-12-25,0.0007886073418870821
2021-12-26,-0.0009209322287957673
2021-12-27,0.00015496606945248058
2021-12-28,0.006372436854708154
2021-12-29,0.0014945505028891133
2021-12-30,-0.001036575249179064
2021-12-31,0.0013872816799587785
2022-01-01,-0.0036100279375545696
2022-01-02,-0.0003750574816349904
2022-01-03,-0.00036498380901496866
2022-01-04,0.0010341881120809143
2022-01-05,0.005323042164672149
2022-01-06,0.0014019017652722125
2022-01-07,0.0030536133657993875
2022-01-08,-0.0003051809948047657
2022-01-09,-0.0004385767932621433
2022-01-10,-0.0003267765540673585
2022-01-11,-0.0026307909594081476
2022-01-12,-0.003513227142620865
2022-01-13,0.003181144746010114
2022-01-14,-0.0006148772364967785
2022-01-15,4.887513118443272e-06
2022-01-16,-8.135815280809338e-05
2022-01-17,0.0022135151937044497
2022-01-18,-0.0001627200441628171
2022-01-19,0.0014159354098844195
2022-01-20,0.0023989892187146573
2022-01-21,0.011626125523205315
2022-01-22,0.003605959005485549
2022-01-23,0.0032265172852016417
2022-01-24,0.0015167964486507634
2022-01-25,0.0003429082337743983
2022-01-26,-0.00026470112969094304
2022-01-27,0.0018359535097982422
2022-01-28,0.0020931320055552556
2022-01-29,0.001175712448753248
2022-01-30,-0.0007383332240769015
2022-01-31,0.0009298591143971462
2022-02-01,-0.0002658776326424419
2022-02-02,-0.004532222779675336
2022-02-03,2.654567082483398e-05
2022-02-04,0.01164190867685242
2022-02-05,-0.00038414513044004105
2022-02-06,0.0023483528479433433
2022-02-07,0.0032103823213266566
2022-02-08,0.00035231983816544864
2022-02-09,9.411703696116702e-05
2022-02-10,-0.0019808860066287274
2022-02-11,-0.0022694960700255203
2022-02-12,-0.00040223255831522975
2022-02-13,-0.00047755439266860145
2022-02-14,0.0014181199153915714
2022-02-15,0.004556332989158352
2022-02-16,-0.0018777861580098682
2022-02-17,-0.0075737301823329125
2022-02-18,-0.0013288113753049879
2022-02-19,0.0002951182400266416
2022-02-20,-0.004241934331846614
2022-02-21,-0.003682224395719163
2022-02-22,-0.004583772737357783
2022-02-23,0.0028911588480661564
2022-02-24,-0.002325657620224265
2022-02-25,-0.003772149453666324
2022-02-26,-0.0003225942965002116
2022-02-27,-0.0026015102541162333
2022-02-28,0.014302616753905586
2022-03-01,0.002821228683033059
2022-03-02,-0.0016610380831828821
2022-03-03,-0.0035617882647024503
2022-03-04,-0.008369876263328453
2022-03-05,0.0005773471460657654
2022-03-06,-0.003068422774417858
2022-03-07,-0.0008639053695071448
2022-03-08,0.002025778153602673
2022-03-09,0.00775838127029614
2022-03-10,-0.006385629258271753
2022-03-11,-0.0014874289961358525
2022-03-12,0.00014891549994664466
2022-03-13,-0.0025939714033304533
2022-03-14,0.005136997303773287
2022-03-15,-0.0011638274405803084
2022-03-16,0.003908016593097996
2022-03-17,-0.0007593677691471591
2022-03-18,0.002246088177843615
2022-03-19,0.0010974642322325368
2022-03-20,-0.0022832001594407314
2022-03-21,-0.0005926797184468508
2022-03-22,0.0033425249719204416
2022-03-23,0.0013555481559766919
2022-03-24,0.002672609026358854
2022-03-25,0.0007551929472948008
2022-03-26,0.00045316736527054594
2022-03-27,0.005235643143299376
2022-03-28,0.0004604583213054223
2022-03-29,0.00046838731965169423
2022-03-30,-0.0007504093209098799
2022-03-31,-0.0031450413761391436
2022-04-01,0.0017801406552746953
2022-04-02,-0.0010210296796527186
2022-04-03,0.0013298526410596074
2022-04-04,0.0005553649127676616
2022-04-05,-0.002233437475776845
2022-04-06,-0.0052043324822155625
2022-04-07,0.0006752892020345996
2022-04-08,-0.0027728545658757884
2022-04-09,0.0011636977624493118
2022-04-10,-0.0014569087991420703
2022-04-11,-0.0062359931709236255
2022-04-12,0.0018437974389282936
2022-04-13,0.0022602638642779836
2022-04-14,-0.0024409293657968695
2022-04-15,0.0015996997347209497
2022-04-16,-0.0004275133152301991
2022-04-17,-0.001758269795281696
2022-04-18,0.0028246885833303923
2022-04-19,0.0017090147262999553
2022-04-20,-0.0001569184686955858
2022-04-21,-0.00266604247206925
2022-04-22,-0.0020041838920225844
2022-04-23,-0.000669139758689801
2022-04-24,1.9928857219072746e-05
2022-04-25,0.0028698829499088463
2022-04-26,-0.005092023069598668
2022-04-27,0.0032929452845904157
2022-04-28,0.001821554885306233
2022-04-29,-0.0037543609594866516
2022-04-30,-0.002543487904019837
2022-05-01,0.0023384667774073867
2022-05-02,0.00033451866055688465
2022-05-03,-0.0017384707392454062
2022-05-04,0.005092626860986078
2022-05-05,-0.007230117912493485
2022-05-06,-0.0018373551362104498
2022-05-07,0.0
2022-05-08,-3.6512011549480467e-05
2022-05-09,-0.0006209622025893907
2022-05-10,0.0001386773745034747
2022-05-11,0.00045036279210296855
2022-05-12,0.0001720573762949019
2022-05-13,9.499185460864321e-05
2022-05-14,0.0
2022-05-15,8.17615883913636e-05
2022-05-16,-0.000282235399115721
2022-05-17,-0.0007152531299119785
2022-05-18,0.0007009604808977164
2022-05-19,-0.0003378543298919465
2022-05-20,-0.00022251401814493604
2022-05-21,0.0
2022-05-22,1.064546118468839e-05
2022-05-23,-0.00037783372069632374
2022-05-24,7.639462198723738e-05
2022-05-25,-0.00023848922447685026
2022-05-26,-0.00011251471912695158
2022-05-27,0.0001971046045293718
2022-05-28,0.0
2022-05-29,2.6980565547335338e-05
2022-05-30,-1.453936959429254e-05
2022-05-31,0.0003444972193335558
2022-06-01,0.000771953510118754
2022-06-02,-0.00024285091682667086
2022-06-03,0.0002373572456129771
2022-06-04,0.0
2022-06-05,-4.933042538352183e-05
2022-06-06,-0.00020081377337236142
2022-06-07,-8.422893180004743e-05
2022-06-08,-4.054478631956455e-05
2022-06-09,-2.6371071058445514e-05
2022-06-10,0.0006667514997710997
2022-06-11,0.0
2022-06-12,0.00014309132315190544
2022-06-13,0.0003615024331146402
2022-06-14,0.00026501882969261756
2022-06-15,-0.0001332244257008616
2022-06-16,-0.0008176954295977164
2022-06-17,0.00014516375385518012
2022-06-18,0.0
2022-06-19,-1.4428086464539116e-05
2022-06-20,-5.6227940720533036e-05
2022-06-21,0.00010378011363347128
2022-06-22,0.00029618514273416707
2022-06-23,4.1641204347397676e-05
2022-06-24,4.0121453210578506e-05
2022-06-25,0.0
2022-06-26,-1.4195153098011674e-05
2022-06-27,0.00019775742271590136
2022-06-28,0.0006960421767603196
2022-06-29,0.0006894735942726178
2022-06-30,-0.00034026517958817633
2022-07-01,0.00030698100985110654
2022-07-02,0.0
2022-07-03,-3.8758764425320505e-06
2022-07-04,-0.0001741374231940254
2022-07-05,0.0007760665726833608
2022-07-06,0.0003186341928813221
2022-07-07,-0.0006408827911735795
2022-07-08,-0.0002214366542351466
2022-07-09,0.0
2022-07-10,6.926754340830181e-05
2022-07-11,0.000796187167701571
2022-07-12,0.00014719433113503648
2022-07-13,0.0002096284350104401
2022-07-14,-0.00022878472390985277
2022-07-15,9.434753869989033e-05
2022-07-16,0.0
2022-07-17,-0.00017929446709695336
2022-07-18,-0.00039487525652857447
2022-07-19,-0.0001334969813840626
2022-07-20,0.00018763811896854046
2022-07-21,-2.163315690487645e-05
2022-07-22,0.00017011662778543022
2022-07-23,0.0
2022-07-24,8.416747264739817e-05
2022-07-25,-0.0004205567844979664
2022-07-26,0.0005240429489942347
2022-07-27,-0.0005794924154377175
2022-07-28,0.00013612289351924283
2022-07-29,6.006632068149358e-05
2022-07-30,0.0
2022-07-31,1.555115028761136e-05
2022-08-01,-0.0006459628726962457
2022-08-02,0.0006850030556417245
2022-08-03,-0.0002408573503411599
2022-08-04,-9.593603035531773e-05
2022-08-05,0.00025386781869220253
2022-08-06,0.0
2022-08-07,4.0803899095463494e-05
2022-08-08,0.00019076748601675635
2022-08-09,4.4533443198466996e-05
2022-08-10,-0.00046511585024667655
2022-08-11,-1.6359806920480897e-05
2022-08-12,0.000412036776923617
2022-08-13,0.0
2022-08-14,2.0534901726513683e-05
2022-08-15,0.0004660557711951279
2022-08-16,-0.0002653190537156761
2022-08-17,0.00020357510458248194
2022-08-18,0.0005779173107549232
2022-08-19,0.0006686483196851935
2022-08-20,0.0
2022-08-21,5.144103314550021e-05
2022-08-22,0.00017439515162671735
2022-08-23,-0.00035849067590741103
2022-08-24,0.00013038101070322376
2022-08-25,-6.649817299576359e-05
2022-08-26,0.00040267290193784984
2022-08-27,0.0
2022-08-28,0.00022629669347511643
2022-08-29,-0.0003991817309137838
2022-08-30,-0.00016899767523332593
2022-08-31,-6.152714899010893e-05
2022-09-01,0.0004944547537062234
2022-09-02,0.00011001879854843143
2022-09-03,0.0
2022-09-04,0.0001358862500399896
2022-09-05,0.0003875005355704707
2022-09-06,0.005880582548743117
2022-09-07,-0.003517425903969793
2022-09-08,-0.0005581467439549448
2022-09-09,-0.011048889686955903
2022-09-10,-0.0015041205268624736
2022-09-11,-0.0002660283262525567
2022-09-12,-0.0005379708298230866
2022-09-13,0.0017447238513099766
2022-09-14,-0.00041085891498224633
2022-09-15,0.0009923959017224336
2022-09-16,-0.0003447149343003118
2022-09-17,0.0
2022-09-18,-4.7677680023284114e-05
2022-09-19,0.0002872908649312556
2022-09-20,0.000764938839968267
2022-09-21,0.0011380344215945657
2022-09-22,-0.000450734686976861
2022-09-23,0.0031158454163704255
2022-09-24,0.0
2022-09-25,0.00034284319964523585
2022-09-26,0.0004401575335544973
2022-09-27,0.000639268724982132
2022-09-28,-0.00100009865089123
2022-09-29,-0.002330045854352985
2022-09-30,0.0010165368311797227
2022-10-01,0.0
2022-10-02,3.531773454985501e-05
2022-10-03,-0.002217889587613906
2022-10-04,-0.00012913574507465738
2022-10-05,-0.00022071890150177325
2022-10-06,0.0018554323470440469
2022-10-07,0.0009143034135318101
2022-10-08,0.0
2022-10-09,0.0001175320198062051
2022-10-10,0.00013044962471607817
2022-10-11,0.0005560354333994065
2022-10-12,-0.0011847001245220224
2022-10-13,-0.001460944749489513
2022-10-14,0.0012122787458864368
2022-10-15,0.0
2022-10-16,-0.00042923301167191365
2022-10-17,-0.0010448894926413026
2022-10-18,-0.00035300088189849695
2022-10-19,0.0007053505505563121
2022-10-20,-0.00014470515959610466
2022-10-21,-0.0010117642662457024
2022-10-22,0.0
2022-10-23,-0.00025175330111340923
2022-10-24,0.0006701822494528491
2022-10-25,-0.0009834044658888637
2022-10-26,-0.0017356839360061728
2022-10-27,0.0003506195024783508
2022-10-28,-4.3871321326837345e-05
2022-10-29,0.0
2022-10-30,0.00015115016066951552
2022-10-31,9.989908776692632e-05
2022-11-01,-0.0003414172641690703
2022-11-02,0.00048775853313792045
2022-11-03,0.0010960865664010006
2022-11-04,-0.0018832778561868053
2022-11-05,0.0
2022-11-06,0.0004900701261903906
2022-11-07,-0.0010525348123908225
2022-11-08,-0.00017996581450350411
2022-11-09,0.0011330291484198708
2022-11-10,-0.002020363943135474
2022-11-11,-0.0013529112793217377
2022-11-12,0.0
2022-11-13,0.0002615190445496298
2022-11-14,0.0001257457773077261
2022-11-15,-0.0010836793265756733
2022-11-16,-0.00011005989436739221
2022-11-17,0.00029016690955656105
2022-11-18,-0.00022725850373503658
2022-11-19,0.0
2022-11-20,-7.213589215111001e-05
2022-11-21,0.0005586439760814597
2022-11-22,-0.0005323210190281752
2022-11-23,-0.0010957358213340134
2022-11-24,-0.00016614609713855988
2022-11-25,6.305203972951779e-05
2022-11-26,0.0
2022-11-27,0.00010442608170591523
2022-11-28,0.0002685671617024843
2022-11-29,3.9983610532741754e-05
2022-11-30,-0.0003732306404353336
2022-12-01,-0.0005224984678581513
2022-12-02,-9.429270680372178e-05
2022-12-03,0.0
2022-12-04,-1.1474502912557406e-05
2022-12-05,0.0002918028253779837
2022-12-06,0.0001673245074396715
2022-12-07,-0.0002149273415154859
2022-12-08,-7.241867970740135e-05
2022-12-09,-8.548260528380762e-05
2022-12-10,0.0
2022-12-11,8.330724070449938e-05
2022-12-12,-9.644360527370157e-05
2022-12-13,-0.0005296347361557138
2022-12-14,-9.760909219582771e-05
2022-12-15,0.005538517905086557
2022-12-16,-0.00013388731000726748
2022-12-17,0.0
2022-12-18,-0.00010634209953555999
2022-12-19,3.6431235205531013e-05
2022-12-20,0.0005680430267964549
2022-12-21,0.000136684879066792
2022-12-22,0.0009062268147060073
2022-12-23,-0.0017227231719769446
2022-12-24,0.0
2022-12-25,0.0004089107328208875
2022-12-26,-0.0012834945492230583
2022-12-27,0.0007257935847372807
2022-12-28,-0.00028522709304089214
2022-12-29,-0.00047081989212976213
2022-12-30,-0.0017390517044298436
2022-12-31,0.0
2023-01-01,0.0007241363339557951
2023-01-02,0.000357221114777158
2023-01-03,0.0017905016334712723
2023-01-04,-0.0034405287576215436
2023-01-05,0.002496894652314976
2023-01-06,-0.0043246498966233015
2023-01-07,0.0
2023-01-08,-0.000572633116571968
2023-01-09,-0.00030339745404135145
2023-01-10,0.0007603685657946423
2023-01-11,-0.0019955993924443915
2023-01-12,-0.001457289887427442
2023-01-13,6.756659739347908e-05
2023-01-14,-6.269e-05
2023-01-15,7.270963129330267e-05
2023-01-16,0.0004856962666063735
2023-01-17,-0.00016649321328965106
2023-01-18,0.002297256344257551
2023-01-19,2.5446639010341752e-05
2023-01-20,-0.0019414514124382136
2023-01-21,0.0
2023-01-22,-0.00012332847171165224
2023-01-23,-0.0006682229706620698
2023-01-24,-0.0002763529712427425
2023-01-25,0.0004916868315432435
2023-01-26,-0.0010467258303735322
2023-01-27,-0.00022947737524040728
2023-01-28,0.0
2023-01-29,4.1595412450167326e-05
2023-01-30,0.0002691356854282361
2023-01-31,0.000889464973980206
2023-02-01,0.0006538303251047842
2023-02-02,-0.0001455462768735359
2023-02-03,-0.00045595737046313933
2023-02-04,0.0
2023-02-05,-6.0875530161404316e-05
2023-02-06,0.00035979650751050184
2023-02-07,1.0317238814642137e-05
2023-02-08,0.0008611932612375119
2023-02-09,-0.00024573321006025254
2023-02-10,-0.001002528726954952
2023-02-11,0.0
2023-02-12,8.997886569027627e-05
2023-02-13,0.0005859308323603543
2023-02-14,-0.00043563645983162074
2023-02-15,0.0003162952025066322
2023-02-16,0.00042020629390768704
2023-02-17,0.0003982878321498447
2023-02-18,0.0
2023-02-19,-9.716567688808635e-05
2023-02-20,-1.868796527345897e-05
2023-02-21,0.00020784752747251775
2023-02-22,-0.00038983563127793384
2023-02-23,-0.0006387620012333855
2023-02-24,-0.004301878938925276
2023-02-25,-0.00023054065211492583
2023-02-26,0.0016792837930682937
2023-02-27,0.00041934341492654725
2023-02-28,-0.0022360678535336786
2023-03-01,0.0019420181704362545
2023-03-02,-0.0011316936605437363
2023-03-03,-0.003464734300633025
2023-03-04,-0.00011915575671328634
2023-03-05,0.0003124358168043447
2023-03-06,0.0014460460157634284
2023-03-07,-0.0013476903870752116
2023-03-08,-0.0014286396074059426
2023-03-09,0.0020050527472861013
2023-03-10,0.002511595291809395
2023-03-11,0.0
2023-03-12,-0.0002331707261757351
2023-03-13,0.0012289966906389972
2023-03-14,-0.0010763719092688898
2023-03-15,-0.002838920590226928
2023-03-16,-5.6278613218823775e-05
2023-03-17,0.0008057341224742352
2023-03-18,0.0
2023-03-19,-0.00037701157019591047
2023-03-20,-0.0010153595989792086
2023-03-21,0.0020547016827893953
2023-03-22,0.0012625357257069958
2023-03-23,2.1060684820109123e-05
2023-03-24,-0.000418443101746747
2023-03-25,0.0
2023-03-26,4.689691072361306e-05
2023-03-27,-2.066384651757712e-05
2023-03-28,-0.0018948645617563526
2023-03-29,0.00015947518283685803
2023-03-30,0.0005682512996457533
2023-03-31,-0.0004201587629606531
2023-04-01,0.0
2023-04-02,-0.000707707651803894
2023-04-03,0.00019246566535876042
2023-04-04,0.0016819955708227486
2023-04-05,0.0001032434876193926
2023-04-06,0.0008982673487291914
2023-04-07,0.0003343380399717565
2023-04-08,0.0
2023-04-09,-0.00024371985031659474
2023-04-10,-0.0010881849631190596
2023-04-11,0.0005155755646079655
2023-04-12,0.0009306438345343479
2023-04-13,-0.0007145608416121661
2023-04-14,0.0002739541772434871
2023-04-15,0.0
2023-04-16,-0.00014525215961910926
2023-04-17,-0.0007644515862168617
2023-04-18,0.0003688902276717781
2023-04-19,0.00036155716395530423
2023-04-20,0.0008394023432189272
2023-04-21,0.0013554107103063934
2023-04-22,0.0
2023-04-23,7.960006848005657e-05
2023-04-24,0.0006943034625190921
2023-04-25,-2.6523078776972328e-05
2023-04-26,0.0010577140068646661
2023-04-27,-0.0012137069645583886
2023-04-28,-0.00035824673332057153
2023-04-29,0.0
2023-04-30,9.58126031395219e-05
2023-05-01,-0.000677003042986698
2023-05-02,0.00037959671512264486
2023-05-03,0.002849734361270286
2023-05-04,-0.0021049333622183285
2023-05-05,-0.002263981561939594
2023-05-06,0.0
2023-05-07,-9.868462825241519e-05
2023-05-08,-0.0004122299713127557
2023-05-09,-1.7923236623382568e-05
2023-05-10,-0.00010462141799557882
2023-05-11,0.00014610287034625435
2023-05-12,0.00018227665556095382
2023-05-13,0.0
2023-05-14,-7.626342655848467e-05
2023-05-15,-0.00030132910782742215
2023-05-16,0.00016238989956485198
2023-05-17,-0.0007060203541497904
2023-05-18,-0.001350412123629031
2023-05-19,0.0008900729486484962
2023-05-20,0.0
2023-05-21,0.00014369011825267472
2023-05-22,5.472252022886432e-05
2023-05-23,-0.00023327219185909166
2023-05-24,0.0007129633189476522
2023-05-25,0.0005206557308716228
2023-05-26,-0.0003296362796193748
2023-05-27,-3.876000000000001e-05
2023-05-28,-0.0003227298227093985
2023-05-29,0.00019990357505959342
2023-05-30,-4.5657439783851995e-06
2023-05-31,-0.0008860500329223118
2023-06-01,0.0002203179161350151
2023-06-02,-0.0017313362072015662
2023-06-03,-4.5900000000000004e-05
2023-06-04,-0.00017839998122566006
2023-06-05,0.0007561122895913683
2023-06-06,-0.0014879236224889945
2023-06-07,-0.0006090366476219525
2023-06-08,0.002333130860452293
2023-06-09,-0.000982679960335211
2023-06-10,-3.6179999999999996e-05
2023-06-11,-5.505357955441569e-05
2023-06-12,-0.001081223370250957
2023-06-13,0.0009195038769292233
2023-06-14,0.0016872360715264978
2023-06-15,0.0009091520315099347
2023-06-16,-0.0004438991927684983
2023-06-17,-4.059e-05
2023-06-18,-7.692399759586573e-05
2023-06-19,-0.0002221460850721532
2023-06-20,3.838337147317648e-05
2023-06-21,0.0008095465179497196
2023-06-22,-0.0005121046914159169
2023-06-23,-1.792182689744696e-05
2023-06-24,-8.607000000000001e-05
2023-06-25,0.00020355542841186188
2023-06-26,-0.0002405321815564259
2023-06-27,0.0009523615412222972
2023-06-28,-0.0002009442344977906
2023-06-29,-0.0006444308003149922
2023-06-30,0.0005805531252229539
2023-07-01,0.0
2023-07-02,3.4250401676060346e-05
2023-07-03,-0.0004179462468003068
2023-07-04,-0.0006493793021423028
2023-07-05,-3.960356843310586e-05
2023-07-06,0.001482693972364085
2023-07-07,0.0007246947744174462
2023-07-08,-4.1110000000000005e-05
2023-07-09,7.554448639616569e-05
2023-07-10,0.0009751140474806039
2023-07-11,0.001518829742881991
2023-07-12,0.0023993183522584534
2023-07-13,0.001490246284485013
2023-07-14,-0.0001499801099044703
2023-07-15,-4.731e-05
2023-07-16,5.467723786033388e-05
2023-07-17,0.0008696025767610709
2023-07-18,0.0005500316526105611
2023-07-19,0.00011879357146722967
2023-07-20,-0.002350586874361736
2023-07-21,0.0009784563384704812
2023-07-22,-3.247e-05
2023-07-23,-1.5925876275829886e-05
2023-07-24,-0.0014448525649021788
2023-07-25,0.0004305682283610854
2023-07-26,0.0013675547274134962
2023-07-27,-0.0011097008928367524
2023-07-28,0.0013019442132627753
2023-07-29,0.0
2023-07-30,-3.238030811999889e-05
2023-07-31,-0.0018443058865466638
2023-08-01,0.001657203777953361
2023-08-02,0.0003583687117670032
2023-08-03,0.000410201812244897
2023-08-04,0.0003747371243855116
2023-08-05,0.0
2023-08-06,-0.00040655194495476223
2023-08-07,0.00035954639449540106
2023-08-08,-0.00013261584200882946
2023-08-09,-0.0004880284090380115
2023-08-10,0.0009750506725235052
2023-08-11,0.0008374423575776623
2023-08-12,0.0
2023-08-13,-5.249123714108927e-05
2023-08-14,-5.136546442946213e-05
2023-08-15,0.0005903810844890097
2023-08-16,0.0007093885488987388
2023-08-17,0.0006306334156707014
2023-08-18,-0.0008678890924915952
2023-08-19,0.0
2023-08-20,-0.00020584178935546547
2023-08-21,0.000856039757400719
2023-08-22,-0.000784081728874783
2023-08-23,-0.0011882033721315672
2023-08-24,0.0007844154899492857
2023-08-25,0.0004789031676261282
2023-08-26,-4.152e-05
2023-08-27,-0.00033690790735947565
2023-08-28,0.00013964665065253917
2023-08-29,-0.0007697075682016935
2023-08-30,0.0004002318127629457
2023-08-31,-0.0015714262976132152
2023-09-01,0.0006400707083299849
2023-09-02,0.0
2023-09-03,3.8609343425124624e-05
2023-09-04,0.00011629304069680478
2023-09-05,0.0012365314003850603
2023-09-06,-0.00030214913362177015
2023-09-07,-0.0005064268774252038
2023-09-08,6.862969099143922e-05
2023-09-09,-4.401e-05
2023-09-10,-0.0005474654244446921
2023-09-11,-0.0007254105665304599
2023-09-12,0.00015382084342761344
2023-09-13,-0.00037667160453184784
2023-09-14,-0.00035562300003598175
2023-09-15,-0.0002678991184230715
2023-09-16,-2.6839999999999997e-05
2023-09-17,-0.00016303507961323323
2023-09-18,-0.0002530376775025524
2023-09-19,-0.0009583150611211617
2023-09-20,0.0006194219666316903
2023-09-21,-0.0005789540048118833
2023-09-22,-0.0016770481020493555
2023-09-23,0.0
2023-09-24,8.71310610847444e-05
2023-09-25,-0.00020903275057513983
2023-09-26,0.00018829205759128786
2023-09-27,0.001009518835745484
2023-09-28,-0.0017552012529319268
2023-09-29,-0.0011645826625057965
2023-09-30,-2.271e-05
2023-10-01,-8.605561143617987e-05
2023-10-02,0.0017106397689371734
2023-10-03,0.001050749956552728
2023-10-04,-0.00012793783833566524
2023-10-05,-0.0009355572156736217
2023-10-06,-0.00017100465391453102
2023-10-07,0.0
2023-10-08,0.000671350367647157
2023-10-09,-0.0011716965465826358
2023-10-10,-0.00031527290239238734
2023-10-11,0.0009209986595459668
2023-10-12,0.0025906157180826395
2023-10-13,0.0016340607490674054
2023-10-14,-2.484e-05
2023-10-15,-0.0006016651954110421
2023-10-16,-0.00019146321443761795
2023-10-17,-0.000600358017602044
2023-10-18,0.0011535470047853058
2023-10-19,0.0010073408500661215
2023-10-20,0.0002706722861636723
2023-10-21,-2.29e-05
2023-10-22,-0.000254958525836125
2023-10-23,-0.00026378958621115227
2023-10-24,-0.000837480906726875
2023-10-25,0.0015491380604730478
2023-10-26,-0.0016601336267330845
2023-10-27,-0.00036494595942856533
2023-10-28,0.0
2023-10-29,-4.8753808020746625e-05
2023-10-30,-0.000990335725810405
2023-10-31,-0.0001597243976125217
2023-11-01,-0.002060006551162321
2023-11-02,-0.0005133391076431921
2023-11-03,-0.0022634175803626193
2023-11-04,0.0
2023-11-05,0.0001478925573306577
2023-11-06,0.0009243311282944684
2023-11-07,0.0012376979874688305
2023-11-08,0.0008574931306303829
2023-11-09,0.0004111592352477766
2023-11-10,0.000109022038965302
2023-11-11,-2.9720000000000003e-05
2023-11-12,1.226065260236549e-06
2023-11-13,-0.00014839271306331622
2023-11-14,-0.002670394608217764
2023-11-15,-0.00026857038831177427
2023-11-16,0.0015668075599887372
2023-11-17,-0.0008423392324351236
2023-11-18,0.0
2023-11-19,0.00010322868704136704
2023-11-20,-0.0018060706248676326
2023-11-21,3.476809697243768e-06
2023-11-22,0.0008767272283738006
2023-11-23,-0.0008922548492373114
2023-11-24,-0.00027089372147841176
2023-11-25,-3.3679999999999996e-05
2023-11-26,1.7880165407462878e-05
2023-11-27,-0.0006202137049243835
2023-11-28,-0.0007191323270690319
2023-11-29,0.0008949131859137823
2023-11-30,0.00016009101014022927
2023-12-01,-0.00037702198129307464
2023-12-02,0.0
2023-12-03,0.0001796112608131152
2023-12-04,0.00044503506858128804
2023-12-05,0.0006940310319054567
2023-12-06,3.4419245796269945e-06
2023-12-07,-0.0008164403400257451
2023-12-08,-0.0002694699046726549
2023-12-09,0.0
2023-12-10,0.00012858648539646204
2023-12-11,0.00031163889615111223
2023-12-12,0.00038272246772684635
2023-12-13,-0.0007666854096129042
2023-12-14,0.00023524100115163718
2023-12-15,-0.0003967574024924519
2023-12-16,0.0
2023-12-17,5.2577788311206116e-05
2023-12-18,0.0005447564564595087
2023-12-19,0.0003486686096265811
2023-12-20,-6.0492684246139827e-05
2023-12-21,0.0003546417572910319
2023-12-22,1.8431323957238287e-07
2023-12-23,0.0
2023-12-24,0.0
2023-12-25,0.00011785726309107912
2023-12-26,-0.0004073594103478737
2023-12-27,0.0014927636131660408
2023-12-28,0.0003576592318884984
2023-12-29,0.000745612213635383
2023-12-30,-3.7109999999999995e-05
2023-12-31,0.0
2024-01-01,0.0002186395002972977
2024-01-02,-0.00032018691170387334
2024-01-03,0.0006504615385590142
2024-01-04,-3.697808170931402e-05
2024-01-05,-3.097828290893277e-05
2024-01-06,-5.08e-05
2024-01-07,-4.1569816081945925e-05
2024-01-08,0.0004181950527849633
2024-01-09,-0.0007845279120205067
2024-01-10,0.00023788672861116303
2024-01-11,-0.0002194528297606256
2024-01-12,-0.0002890338371011258
2024-01-13,-2.47e-05
2024-01-14,-2.4327404728874295e-05
2024-01-15,-0.00020897339762351042
2024-01-16,-7.2613357113753e-05
2024-01-17,-0.00032060001069384884
2024-01-18,-0.001129129632678057
2024-01-19,-0.0001781303794410884
2024-01-20,-3.685e-05
2024-01-21,2.7798405396003822e-05
2024-01-22,0.00017331801347766755
2024-01-23,-0.00018352965766007536
2024-01-24,0.0010415642690173967
2024-01-25,-0.000655515635159577
2024-01-26,0.0007068144346974439
2024-01-27,0.0
2024-01-28,7.403666131384785e-05
2024-01-29,-0.00016851253321484527
2024-01-30,2.9457471642498886e-05
2024-01-31,0.00038065325303386275
2024-02-01,0.00018875415673178534
2024-02-02,-0.00037387735106929744
2024-02-03,0.0
2024-02-04,0.00017757578941923034
2024-02-05,-0.00023380465823116215
2024-02-06,-0.0005155955006928944
2024-02-07,-0.000920469783103638
2024-02-08,0.00020856552740461506
2024-02-09,-0.0007524220909173859
2024-02-10,-2.844e-05
2024-02-11,0.00010248034027307242
2024-02-12,-0.0001178701199745249
2024-02-13,-0.0002524794871251633
2024-02-14,-0.00036089566468238386
2024-02-15,0.00011532698158358514
2024-02-16,-0.0002979073577625235
2024-02-17,0.0
2024-02-18,-1.375904231533184e-05
2024-02-19,-0.0002516537443584321
2024-02-20,-0.00034010404415811454
2024-02-21,0.00018975554564491074
2024-02-22,-0.00022955864398043567
2024-02-23,-0.0002144776732486767
2024-02-24,-3.034e-05
2024-02-25,0.00015478796453348903
2024-02-26,0.00046095175211618343
2024-02-27,3.4076088832959066e-05
2024-02-28,0.0008861848009911466
2024-02-29,-0.0005050185308047481
2024-03-01,-0.00033150935258437745
2024-03-02,0.0
2024-03-03,4.807825953613176e-05
2024-03-04,-3.310681936077264e-05
2024-03-05,0.0002070327582596313
2024-03-06,-0.0009705476837780626
2024-03-07,-0.0006344979538782591
2024-03-08,-8.674293073268372e-05
2024-03-09,0.0
2024-03-10,-3.919688103285429e-06
2024-03-11,0.00014937219939997976
2024-03-12,0.00012460710043800537
2024-03-13,-0.0003462274018567611
2024-03-14,-0.0001396328040515122
2024-03-15,0.0003037060357823931
2024-03-16,-5.0879999999999994e-05
2024-03-17,1.922735372047115e-05
2024-03-18,-0.0003124271375120013
2024-03-19,0.0002004207237064592
2024-03-20,-0.0009503264706872513
2024-03-21,2.8702684026144294e-05
2024-03-22,0.0010865826813786946
2024-03-23,-2.334e-05
2024-03-24,1.3413333674580283e-05
2024-03-25,-0.0003645195152421573
2024-03-26,-0.00018988309389874266
2024-03-27,0.00013296719629766384
2024-03-28,0.0002798608487363926
2024-03-29,-1.978102780970096e-05
2024-03-30,-4.862e-05
2024-03-31,-0.00013990025590429652
2024-04-01,9.651112580607419e-05
2024-04-02,-0.00044710616298460835
2024-04-03,-0.0005995070584451696
2024-04-04,-2.10188945109947e-05
2024-04-05,0.00012157537962203022
2024-04-06,-1.795e-05
2024-04-07,5.625940284819818e-05
2024-04-08,-0.00026307133504542774
2024-04-09,-8.240176998956775e-05
2024-04-10,0.00047647670220114915
2024-04-11,0.000157846247575404
2024-04-12,9.33283724452494e-05
2024-04-13,-1.958e-05
2024-04-14,-7.764291846780101e-06
2024-04-15,-4.082533793813406e-05
2024-04-16,-8.397711726105072e-05
2024-04-17,-8.017988921872748e-05
2024-04-18,0.00010100088796541759
2024-04-19,-9.481304425370305e-05
2024-04-20,-3.8129999999999996e-05
2024-04-21,7.069254421760653e-05
2024-04-22,0.00010096588557773756
2024-04-23,-7.455429319001407e-05
2024-04-24,4.616041916859941e-05
2024-04-25,1.4162128743466033e-05
2024-04-26,0.00010519546980428761
2024-04-27,0.0
2024-04-28,-3.1601631671585008e-06
2024-04-29,4.61427976805607e-06
2024-04-30,-0.00012551343222507827
2024-05-01,0.0001258547771872011
2024-05-02,-0.000492969482724835
2024-05-03,-0.0005937820813354419
2024-05-04,-5.7300000000000004e-05
2024-05-05,-4.274507688782163e-06
2024-05-06,-4.278613391553e-05
2024-05-07,0.00013048015749373944
2024-05-08,4.813038135254213e-05
2024-05-09,-0.00012619083994449344
2024-05-10,8.412503490850801e-06
2024-05-11,-1.825e-05
2024-05-12,-1.6434436699091045e-06
2024-05-13,-5.8451265564223484e-05
2024-05-14,-7.380733974766042e-05
2024-05-15,-0.00021263601190749405
2024-05-16,6.798265594138079e-05
2024-05-17,0.00010175472768862086
2024-05-18,0.0
2024-05-19,-1.2644693656024103e-06
2024-05-20,-1.7700245872587582e-05
2024-05-21,-6.301713683323346e-05
2024-05-22,0.00024579105731469073
2024-05-23,-4.627060097628227e-05
2024-05-24,-0.0001906489521271088
2024-05-25,-3.0480000000000003e-05
2024-05-26,-1.3104878933873979e-05
2024-05-27,1.362588117507354e-05
2024-05-28,0.00012389381299779216
2024-05-29,0.0003431342151693187
2024-05-30,0.0002741117232235225
2024-05-31,-0.00026098849522550007
2024-06-01,-2.247e-05
2024-06-02,3.595951614370582e-05
2024-06-03,0.00031454914418441784
2024-06-04,0.0006983939335946025
2024-06-05,-0.00039191847441679426
2024-06-06,0.00029198016424611373
2024-06-07,-0.0006616398661565628
2024-06-08,0.0
2024-06-09,6.730148107796442e-05
2024-06-10,5.819148635224039e-06
2024-06-11,-0.00020085849657568868
2024-06-12,0.0004003995442918763
2024-06-13,-5.092448138708911e-05
2024-06-14,-7.287657341168373e-05
2024-06-15,-1.7219999999999998e-05
2024-06-16,-4.123051448369995e-06
2024-06-17,5.110043237444261e-05
2024-06-18,9.960500664704655e-05
2024-06-19,2.3278093294194625e-05
2024-06-20,-0.00018574049353964345
2024-06-21,-0.0003379414021287724
2024-06-22,-1.703e-05
2024-06-23,-6.089064350028925e-05
2024-06-24,0.00015684792870753272
2024-06-25,-0.00016943670641849024
2024-06-26,-0.0003874698500698948
2024-06-27,-9.227035067140223e-05
2024-06-28,5.01778850315691e-05
2024-06-29,-6.555e-05
2024-06-30,1.7984321339093385e-05
2024-07-01,-0.0001271513514858344
2024-07-02,5.7800819386820976e-05
2024-07-03,0.0002803901424044289
2024-07-04,2.8147909332297395e-05
2024-07-05,0.0005051354070705606
2024-07-06,-2.8389999999999998e-05
2024-07-07,4.927197786673351e-05
2024-07-08,-0.0002609731424083646
2024-07-09,-8.80350922601006e-06
2024-07-10,-0.0003599122337450047
2024-07-11,0.00024376682307523218
2024-07-12,0.00019682316549685352
2024-07-13,-4.402e-05
2024-07-14,-0.00015395020019424177
2024-07-15,2.607551784621301e-05
2024-07-16,0.00012825146203942624
2024-07-17,0.0007395228148605373
2024-07-18,-0.0003467932516929806
2024-07-19,-0.00016298726868903095
2024-07-20,0.0
2024-07-21,7.925401186743637e-05
2024-07-22,-0.00037133640503016647
2024-07-23,-0.0001525313932862441
2024-07-24,0.0003792864196878427
2024-07-25,-6.95419040163409e-05
2024-07-26,-0.0001132444661602308
2024-07-27,0.0
2024-07-28,-6.549562535207624e-06
2024-07-29,9.299688831818675e-05
2024-07-30,-4.7155116970346635e-05
2024-07-31,-0.0002523213988698338
2024-08-01,8.355443923468461e-05
2024-08-02,-0.0006820998159135379
2024-08-03,0.0
2024-08-04,-0.0001090741923770456
2024-08-05,-0.0001858261809347612
2024-08-06,-0.00041798434517631536
2024-08-07,0.0
2024-08-08,0.0
2024-08-09,0.0
2024-08-10,0.0
2024-08-11,0.0
2024-08-12,0.0
2024-08-13,0.0
2024-08-14,0.0
2024-08-15,0.0
2024-08-16,0.0
2024-08-17,0.0
2024-08-18,0.0
2024-08-19,0.0
2024-08-20,0.0
2024-08-21,0.0
2024-08-22,0.0
2024-08-23,0.0
2024-08-24,0.0
2024-08-25,0.0
2024-08-26,0.0
2024-08-27,0.0
2024-08-28,-0.0002673299999999999
2024-08-29,-0.0016335048617967236
2024-08-30,7.355353337373874e-05
2024-08-31,0.0
2024-09-01,-0.0001977151609364612
2024-09-02,-0.00033608783531649013
2024-09-03,0.0024035608404557565
2024-09-04,0.0006986295783980715
2024-09-05,-0.000542916335110322
2024-09-06,0.0022200452255358707
2024-09-07,0.0
2024-09-08,-0.00014450551185243155
2024-09-09,-0.0006822743905386349
2024-09-10,0.000743388754976524
2024-09-11,-0.0017518519912879636
2024-09-12,-0.0006500331016742361
2024-09-13,0.0008341179048732719
2024-09-14,-4.8939999999999996e-05
2024-09-15,7.405573399701603e-05
2024-09-16,0.0004838364532020686
2024-09-17,-0.0005524698285267457
2024-09-18,-9.160794741634171e-05
2024-09-19,-0.0004259568061688124
2024-09-20,-0.00018759388195871914
2024-09-21,0.0
2024-09-22,-0.0001684574911149223
2024-09-23,0.0003267803534920626
2024-09-24,-0.0006807394417202523
2024-09-25,-0.0005792124949440457
2024-09-26,0.0009325535617828964
2024-09-27,0.0010395242028174699
2024-09-28,0.0
2024-09-29,-0.0002730923646063377
2024-09-30,-0.0007731861877922407
2024-10-01,-0.00032418028101513437
2024-10-02,-0.000575468821614028
2024-10-03,-0.0001625163555759992
2024-10-04,-0.0007884925895301747
2024-10-05,-6.452e-05
2024-10-06,-0.00010259051649840789
2024-10-07,0.0012256128592031252
2024-10-08,-0.00031912825091905497
2024-10-09,0.0004681478969921283
2024-10-10,0.0005995363194704065
2024-10-11,-0.00014398219077639546
2024-10-12,0.0
2024-10-13,8.849640207862802e-05
2024-10-14,-0.0005652465891985671
2024-10-15,0.00023247985921043092
2024-10-16,-0.0009681994413881967
2024-10-17,0.00011327136897835932
2024-10-18,0.00013252204329746554
2024-10-19,0.0
2024-10-20,9.903870300460357e-05
2024-10-21,-0.0008510954669578329
2024-10-22,0.0003562645474579055
2024-10-23,-0.0008062076549384814
2024-10-24,0.00013793062686865825
2024-10-25,3.110623806555235e-05
2024-10-26,-7.136000000000001e-05
2024-10-27,-0.00016898820877457645
2024-10-28,0.00010544913846842196
2024-10-29,3.15738262764479e-05
2024-10-30,7.508821458517603e-05
2024-10-31,0.0002473830779846962
2024-11-01,-0.00044992102221200225
2024-11-02,0.0
2024-11-03,5.234956081986763e-05
2024-11-04,0.00026160412676721383
2024-11-05,-0.0003609924951135581
2024-11-06,-3.7676641784338336e-05
2024-11-07,9.989894586068516e-05
2024-11-08,-0.0006329545269715766
2024-11-09,0.0
2024-11-10,-1.2989611551738683e-05
2024-11-11,-0.0004020376347108171
2024-11-12,-0.0004588949489576698
2024-11-13,-0.00014879187546069534
2024-11-14,-0.00024253777010666138
2024-11-15,0.00016453477079221324
2024-11-16,0.0
2024-11-17,1.0588385872015199e-05
2024-11-18,9.545738245483879e-05
2024-11-19,-0.00010389822305147242
2024-11-20,0.00011814840005058418
2024-11-21,8.957990915565089e-05
2024-11-22,-0.0002049889777696565
2024-11-23,0.0
2024-11-24,4.9076560418733625e-05
2024-11-25,0.00034661843869690636
2024-11-26,-0.00014290466404789963
2024-11-27,-9.412970777221949e-05
2024-11-28,3.407347504291243e-05
2024-11-29,-3.6016135949063586e-05
2024-11-30,0.0
2024-12-01,-1.4865047240672963e-05
2024-12-02,-0.00013951380477101273
2024-12-03,1.7376923292261687e-06
2024-12-04,0.0004650390329087325
2024-12-05,-0.0003550771346718265
2024-12-06,0.0013374202162996626
2024-12-07,-3.176e-05
2024-12-08,-0.00015418996941769217
2024-12-09,-0.0001574535985911395
2024-12-10,9.889527761568338e-05
2024-12-11,-0.00016743240469523475
2024-12-12,-0.0006485640358109623
2024-12-13,-0.00015001187763644417
2024-12-14,0.0
2024-12-15,-6.683472053856671e-05
2024-12-16,-0.0006660247809865928
2024-12-17,0.0011919523274433717
2024-12-18,0.003011891145501318
2024-12-19,-0.00020124616614812445
2024-12-20,-0.0003077482852441134
2024-12-21,0.0
2024-12-22,-5.637614233966433e-05
2024-12-23,-0.00028457107481724003
2024-12-24,-0.00014767710335254254
2024-12-25,-3.5039146634188476e-05
2024-12-26,0.000499090323098866
2024-12-27,-0.0004529441683389058
2024-12-28,0.0
2024-12-29,-0.0001729706211208897
2024-12-30,-7.847469725304486e-05
2024-12-31,0.0007559660437892184
2025-01-01,-0.00011029181831460185
2025-01-02,0.00015608026391876522
2025-01-03,-0.00013574927503652725
2025-01-04,0.0
2025-01-05,-0.00019297509886573357
2025-01-06,-0.0006428445436764405
2025-01-07,-0.00019793090125704927
2025-01-08,9.583398468655617e-05
2025-01-09,9.37889816950173e-05
2025-01-10,0.0008647502703945284
2025-01-11,0.0
2025-01-12,-0.00024248352022702003
2025-01-13,-0.001071760398990729
2025-01-14,0.00010607847863185935
2025-01-15,-0.0008753413748467967
2025-01-16,0.0007751439102504536
2025-01-17,0.0004450479542881612
2025-01-18,0.0
2025-01-19,-0.0001561166897629838
2025-01-20,-0.0021526422222001664
2025-01-21,0.0005146948260505268
2025-01-22,-2.7495745794865955e-05
2025-01-23,-0.0003010879596378639
2025-01-24,-0.00037006813239250525
2025-01-25,0.0
2025-01-26,0.000255675563851198
2025-01-27,0.000635004058918902
2025-01-28,6.28249315435027e-05
2025-01-29,-0.00012171065216472936
2025-01-30,0.0002911124303461963
2025-01-31,-5.771891080474848e-05
2025-02-01,0.0
2025-02-02,0.0009431479713790391
2025-02-03,-0.0011698607235806915
2025-02-04,3.889624965165613e-06
2025-02-05,-0.00021342656068822134
2025-02-06,-0.00013733886810061633
2025-02-07,-0.00017500894366025458
2025-02-08,0.0
2025-02-09,0.00018193365985287732
2025-02-10,3.3809079307272935e-05
2025-02-11,-0.0007074995703187305
2025-02-12,0.00020546383351833074
2025-02-13,-9.629628091170639e-05
2025-02-14,-0.00037219423139013254
2025-02-15,-2.213e-05
2025-02-16,-6.647860174274131e-05
2025-02-17,-8.367154814366382e-05
2025-02-18,-7.312912298730243e-05
2025-02-19,0.00014595585255857023
2025-02-20,-0.0005758620446381026
2025-02-21,0.000607644653033101
2025-02-22,0.0
2025-02-23,-0.0002444296879067066
2025-02-24,0.0006578991157449111
2025-02-25,0.000131618101116231
2025-02-26,0.00046323807722007895
2025-02-27,0.0008989609413149141
2025-02-28,0.00015427857533512195
2025-03-01,0.0
2025-03-02,-0.00011974795530296121
2025-03-03,0.00045828285876486793
2025-03-04,-0.00047067143031698954
2025-03-05,-0.0013656383266612451
2025-03-06,0.00012682489012039999
2025-03-07,0.000491032184277521
2025-03-08,0.0
2025-03-09,0.0001085311813392087
2025-03-10,7.690745006284283e-05
2025-03-11,-0.0002357872276791778
2025-03-12,-0.00025553502163422115
2025-03-13,0.00033014274689673105
2025-03-14,-0.0005234674781925591
2025-03-15,0.0
2025-03-16,6.087376134016524e-06
2025-03-17,-0.0005369163857782632
2025-03-18,0.0001947627516096373
2025-03-19,5.3483400273415646e-05
2025-03-20,0.00016380463867610905
2025-03-21,0.00019367856387894806
2025-03-22,0.0
2025-03-23,-0.0001140340342853763
2025-03-24,0.00011328783961862929
2025-03-25,-0.00010066772351086716
2025-03-26,7.161190802530557e-05
2025-03-27,-4.823706024496771e-05
2025-03-28,0.00034371675830481156
2025-03-29,0.0
2025-03-30,3.638947697478719e-05
2025-03-31,0.00041480376609433775
2025-04-01,-0.0009219692778726769
2025-04-02,0.0007594264061348428
2025-04-03,0.0010129883345289005
2025-04-04,0.002983646998401099
2025-04-05,-1.932e-05
2025-04-06,0.001780616175812919
2025-04-07,-0.0009517353200736142
2025-04-08,0.002006934993916467
2025-04-09,-0.003677709619838973
2025-04-10,0.0020436290308036564
2025-04-11,-0.0005942031440248909
2025-04-12,-3.0930000000000004e-05
2025-04-13,-0.00046165613525373596
2025-04-14,-6.164129980403212e-05
2025-04-15,-0.0007511858565411782
2025-04-16,0.00020074898470039452
2025-04-17,-0.0009222161740496263
2025-04-18,0.0006859222603517025
2025-04-19,0.0
2025-04-20,6.978493547034453e-05
2025-04-21,-5.890411620587593e-05
2025-04-22,-0.0014021718028601846
2025-04-23,-0.00023637767453034078
2025-04-24,-0.00036299174167224544
2025-04-25,0.00026248386375292204
2025-04-26,0.0
2025-04-27,0.0001118404302776948
2025-04-28,0.0003459087998237448
2025-04-29,0.00022956478330300593
2025-04-30,-0.0004969366192885787
2025-05-01,4.281283634081173e-05
2025-05-02,-0.0003933865421543459
2025-05-03,0.0
2025-05-04,0.0002919435727523307
2025-05-05,4.8004708917942656e-05
2025-05-06,-0.0010768224330366877
2025-05-07,0.0011918507600714007
2025-05-08,-0.00027445809924216504
2025-05-09,-0.00013098957908844026
2025-05-10,0.0
2025-05-11,-0.0004170114033978407
2025-05-12,-0.0006026362424481721
2025-05-13,0.0001452174224834592
2025-05-14,0.00024262495834445445
2025-05-15,0.0014587923756884825
2025-05-16,-0.0006358514647466268
2025-05-17,0.0
2025-05-18,0.00042519476569470913
2025-05-19,-0.00033903578590309787
2025-05-20,0.0018483227000444535
2025-05-21,0.0003757071859146979
2025-05-22,-0.0004527983765880839
2025-05-23,0.0003462356649871249
2025-05-24,0.0
2025-05-25,-0.0002277722684341657
2025-05-26,0.0005484619776266139
2025-05-27,-0.0008551371506994984
2025-05-28,-0.0012509386394360359
2025-05-29,0.0021744002926539973
2025-05-30,-0.000162820349662617
2025-05-31,0.0
2025-06-01,-3.8306272304726004e-05
2025-06-02,0.0005902360654122967
2025-06-03,-0.0005133298075418261
2025-06-04,0.0001908675492334318
2025-06-05,-0.0006780684077595592
2025-06-06,9.75970159014049e-05
2025-06-07,0.0
2025-06-08,-5.22471939725948e-05
2025-06-09,-0.0006271713585170281
2025-06-10,-0.00021831921089691416
2025-06-11,0.0009231701686751021
2025-06-12,0.0016543129162649426
2025-06-13,-5.765007697532113e-05
2025-06-14,-3.0419999999999997e-05
2025-06-15,-0.00022467150485267382
2025-06-16,-0.0005546151978073744
2025-06-17,-0.0005666656773879048
2025-06-18,-0.0007569308877801046
2025-06-19,0.0011125598009791818
2025-06-20,0.00033263402539371605
2025-06-21,0.0
2025-06-22,2.1007173302333974e-06
2025-06-23,0.000868671456875426
2025-06-24,0.001350146826932547
2025-06-25,0.00011043037610511172
2025-06-26,0.0003647346856218297
2025-06-27,0.000633607585604436
2025-06-28,-3.223e-05
2025-06-29,6.431015129544542e-05
2025-06-30,0.0002994861527099435
2025-07-01,0.0003986202263583291
2025-07-02,-0.00044282947458890875
2025-07-03,-0.0004472913166788991
2025-07-04,0.0003913091824460558
2025-07-05,0.0
2025-07-06,0.00010175454050510389
2025-07-07,-3.855549111775542e-05
2025-07-08,-5.969632201110279e-06
2025-07-09,0.0005412686918589665
2025-07-10,-0.001828558738936638
2025-07-11,0.00039319276515929595
2025-07-12,0.0
2025-07-13,-4.098306482168617e-05
2025-07-14,0.0002458415376226129
2025-07-15,-0.00046616026063150544
2025-07-16,0.00017393277718981702
2025-07-17,-0.00024088431696274543
2025-07-18,0.0001251338966037972
2025-07-19,-2.1059999999999998e-05
2025-07-20,0.0001236536052421692
2025-07-21,0.00047050675922947875
2025-07-22,0.0005530794108125036
2025-07-23,-0.00025268610503737464
2025-07-24,-0.00037678824545730457
2025-07-25,0.0003729210833263169
2025-07-26,-2.7300000000000003e-05
2025-07-27,-8.604206176416846e-05
2025-07-28,-0.001444470503371474
2025-07-29,-0.0004537733106031207
2025-07-30,-0.0011191441776770444
2025-07-31,0.0002227725548338625
2025-08-01,0.001987551096146626
2025-08-02,0.0
2025-08-03,-1.1038543051388707e-05
2025-08-04,-0.0007811419668758188
2025-08-05,7.577604832300073e-05
2025-08-06,2.570172324120384e-06
2025-08-07,-0.00047473940319474187
2025-08-08,-0.0005793223626877617
2025-08-09,0.0
2025-08-10,0.0002853618450080023
2025-08-11,-0.0010335395145833438
2025-08-12,0.0013004942797043774
2025-08-13,0.00015409475417921533
2025-08-14,7.89934026538389e-06
2025-08-15,0.00027486560064830036
2025-08-16,0.0
2025-08-17,-1.6210372025756703e-05
2025-08-18,-0.00027480142745462473
2025-08-19,0.0003553826095212053
2025-08-20,0.0012500707537192836
2025-08-21,-0.0009032738972492103
2025-08-22,0.0009612667544341577
2025-08-23,-2.298e-05
2025-08-24,-0.00020054357011478293
2025-08-25,-0.0009872827727435635
2025-08-26,0.0003472986801677902
2025-08-27,0.00014887238563923266
2025-08-28,-0.00019579922837668375
2025-08-29,0.00014729417846898616
2025-08-30,0.0
2025-08-31,-9.144833002275284e-06
2025-09-01,0.000169774145499672
2025-09-02,-0.0012208627009289888
2025-09-03,0.0003082086094657089
2025-09-04,-5.800532070187459e-05
2025-09-05,0.0013939260392034436
2025-09-06,0.0
2025-09-07,-0.00022484804681208637
2025-09-08,0.0010397549614355904
2025-09-09,-0.0010457488925821746
2025-09-10,-0.0005953512608926054
2025-09-11,8.330614115978942e-05
2025-09-12,0.00014912801589746867
2025-09-13,0.0
2025-09-14,-4.837354534586055e-05
2025-09-15,0.00010116435365820393
2025-09-16,0.001954501426458017
2025-09-17,-1.8797204547254653e-05
2025-09-18,-0.0004198973837290829
2025-09-19,-0.0004679549569745264
2025-09-20,0.0
2025-09-21,-0.00012648817845081867
2025-09-22,0.0009190998521470231
2025-09-23,0.00038202741651949864
2025-09-24,-0.00039925820311358475
2025-09-25,-0.0005035020182621384
2025-09-26,0.0003490456922793763
2025-09-27,0.0
2025-09-28,6.020050533088273e-05
2025-09-29,-0.00018093040256568033
2025-09-30,-7.093222263450865e-05
2025-10-01,-0.0003477321523104183
2025-10-02,0.00015209027649866345
2025-10-03,0.00030699652808142123
2025-10-04,-2.331e-05
2025-10-05,-0.00033490862807074426
2025-10-06,9.34873600048459e-05
2025-10-07,-0.0005556644409729873
2025-10-08,-0.0005728071991807093
2025-10-09,-0.0007136460948740252
2025-10-10,0.0018755888238408752
2025-10-11,0.0
2025-10-12,-0.0009198195621688424
2025-10-13,-0.0004429876214073011
2025-10-14,0.0007693885702024754
2025-10-15,0.0010286254278610016
2025-10-16,0.000991947229459569
2025-10-17,-0.0005600362310435177
2025-10-18,0.0
2025-10-19,-0.00010692738998811151
2025-10-20,-3.580459765310382e-05
2025-10-21,-0.0008276604814419044
2025-10-22,0.00021033590489172934
2025-10-23,-0.00014117652830479457
2025-10-24,2.0166030391099234e-05
2025-10-25,0.0
2025-10-26,-0.0003406902213193322
2025-10-27,2.079582660307858e-07
2025-10-28,0.00022322091484983046
2025-10-29,-0.0015075234768574613
2025-10-30,-7.795159288465753e-05
2025-10-31,-0.00043117825781436713
2025-11-01,0.0
2025-11-02,-8.531036037337689e-05
2025-11-03,-0.00045481992475416465
2025-11-04,0.0009952747270317896
2025-11-05,-0.0003733929530765623
2025-11-06,0.0013538489432484862
2025-11-07,0.0003126432376733783
2025-11-08,0.0
2025-11-09,-0.0005396606527676999
2025-11-10,4.4153547484181995e-06
2025-11-11,0.001109591069130482
2025-11-12,0.0005246623053321616
2025-11-13,0.001349802569520527
2025-11-14,-0.0006764090330412313
2025-11-15,0.0
2025-11-16,1.0389765027519522e-05
2025-11-17,1.6011527319570597e-06
2025-11-18,-0.00109601360943043
2025-11-19,-0.0005012902741650018
2025-11-20,0.00048808625458188253
2025-11-21,-0.0010807856007493347
2025-11-22,0.0
2025-11-23,-9.883525810701413e-05
2025-11-24,2.431017060275871e-05
2025-11-25,-0.00010671217161124438
2025-11-26,-0.0008048163189052379
2025-11-27,-0.0007599586545899674
2025-11-28,0.0002011132514830406
2025-11-29,0.0
2025-11-30,-0.00011537201054463483
2025-12-01,-9.11362101144922e-05
2025-12-02,7.1340920648251e-05
2025-12-03,-5.279334051663101e-05
2025-12-04,-0.0007522258223269439
2025-12-05,-0.0007109581320124015
2025-12-06,-2.294e-05
2025-12-07,4.246576018866849e-05
2025-12-08,-0.00040583852914779475
2025-12-09,3.832359003286678e-05
2025-12-10,0.0006888185654936367
2025-12-11,0.0012392953378129814
2025-12-12,-0.000206500349211409
2025-12-13,-3.3421305319529944e-05
2025-12-14,0.0006395685932752402
2025-12-15,-0.0018312625662970127
2025-12-16,0.0017361243157953364
2025-12-17,-0.001771161230900141
2025-12-18,-0.00076039755999008
2025-12-19,0.003028459259954213
2025-12-20,0.00025503033891587367
2025-12-21,0.00039754644586946774
2025-12-22,-0.0003212333151156178
2025-12-23,0.00011300795582713045
2025-12-24,0.00030563098550008306
2025-12-25,-0.0006062706799255099
2025-12-26,1.7328284670749817e-06
2025-12-27,0.0005661469218081638
2025-12-28,0.00013078833791732662
2025-12-29,-0.0006804039327125593
2025-12-30,0.0010486303204641878
2025-12-31,0.0012840910915488868
2026-01-01,-0.0013254441977688359
2026-01-02,-0.0015009897837116733
2026-01-03,-0.0006973267510763215
2026-01-04,-0.0009736074367387233
2026-01-05,-0.0029348674581420008
2026-01-06,-0.0004153695064748102
2026-01-07,-0.00019154598467174263
2026-01-08,8.855207341679971e-05
2026-01-09,-0.00012029122791614966
2026-01-10,0.0
2026-01-11,-4.167683204528697e-05
2026-01-12,0.00020180731618390225
2026-01-13,-0.00025974604487745103
2026-01-14,0.00018224603369999164
2026-01-15,-0.0007065269984107977
2026-01-16,-1.645093929885649e-05
2026-01-17,0.0
2026-01-18,0.0005822566943489335
2026-01-19,-0.00019164983471199647
2026-01-20,0.0011865633307668881
2026-01-21,-0.0015809447326679896
2026-01-22,3.13958014575385e-05
2026-01-23,0.0007419215409999753
2026-01-24,0.0
2026-01-25,0.00032758114761070775
2026-01-26,9.682491169754713e-05
2026-01-27,0.0018083504476292666
2026-01-28,-0.0009349701442456268
2026-01-29,6.829820205164931e-05
2026-01-30,-0.0008786755200888387
2026-01-31,0.0
2026-02-01,-5.171669954479681e-05
2026-02-02,-0.0008667732806925507
2026-02-03,0.0004331748007975737
2026-02-04,8.73851737093136e-05
2026-02-05,0.0004370559168690678
2026-02-06,-0.00014854681474486776
2026-02-07,-1.5779999999999998e-05
2026-02-08,-0.00014889235220167803
2026-02-09,0.0011148844345899806
2026-02-10,-0.000160000767514062
2026-02-11,-0.0004408346169648261
2026-02-12,0.0005117389253215052
2026-02-13,0.0002452768216841554
2026-02-14,0.0
2026-02-15,-8.428811124876594e-05
2026-02-16,-0.0001508823273431081
2026-02-17,-5.516715135796179e-05
2026-02-18,0.0003387525923722345
2026-02-19,-0.0005236659227502576
2026-02-20,-0.00016993854856503266
2026-02-21,0.0
2026-02-22,0.0003942252566859585
2026-02-23,-3.6500207145377314e-06
2026-02-24,7.623752700204989e-05
2026-02-25,-9.304456539949292e-05
2026-02-26,2.6358307932439375e-05
2026-02-27,0.0005615642727313916
2026-02-28,0.0
2026-03-01,0.000180147124616315
2026-03-02,-0.0015006433040792263
2026-03-03,-0.0003100000669328881
2026-03-04,6.198131237292031e-05
2026-03-05,-1.687455197040611e-05
2026-03-06,0.0005168546831848784
2026-03-07,0.0
2026-03-08,-0.00033839299912374703
2026-03-09,-0.00011608454690869267
2026-03-10,8.732388737947873e-05
2026-03-11,-0.00012232760017621174
2026-03-12,-0.00027289210152953007
2026-03-13,-0.0001063829317929859
2026-03-14,0.0
2026-03-15,3.8869367107842894e-05
2026-03-16,-0.00024575303915774603
2026-03-17,0.0005853803170923217
2026-03-18,-0.000731964876167943
2026-03-19,-0.00018405169495458795
2026-03-20,0.00047785394486265457
2026-03-21,0.0
2026-03-22,-5.8127192986201646e-05
2026-03-23,-0.00014816793147260295
2026-03-24,-2.155698853879567e-05
2026-03-25,-0.0002618157682309945
2026-03-26,-0.00013549085625361843
2026-03-27,-0.0003691329892637506
2026-03-28,0.0
2026-03-29,-4.332827340138427e-06
2026-03-30,0.00023529584283421578
2026-03-31,-0.0001365019100649656
2026-04-01,0.000547476394290177
2026-04-02,2.6277478853185354e-05
2026-04-03,0.00013822643276155785
2026-04-04,0.0
2026-04-05,-0.000279763403915356
2026-04-06,-0.0002930887495343239
2026-04-07,-0.0010308767072929725
2026-04-08,-0.0008160345803187028
2026-04-09,-8.82263451916956e-05
2026-04-10,0.00018843591472584518
2026-04-11,-3.51e-05
2026-04-12,0.00011296085064458112
2026-04-13,-1.90292249226165e-05
2026-04-14,-0.0002872869356882227
2026-04-15,-1.8709879151039386e-05
2026-04-16,0.00021983871992077824
2026-04-17,0.00031387235456169975
2026-04-18,-4.465e-05
2026-04-19,0.00018368301096508712
2026-04-20,-0.0004980403030620375
2026-04-21,3.4388736194628234e-06
2026-04-22,-0.0005352374154983242
2026-04-23,0.0010757945603143161
2026-04-24,-0.0006978595643816788
2026-04-25,0.0
2026-04-26,0.00015043921623136895
2026-04-27,-0.0006566100810605918
2026-04-28,0.00015256339580109105
2026-04-29,0.0006074629781777881
2026-04-30,7.850102231767065e-05
2026-05-01,7.05793371045304e-05
2026-05-02,-6.620000000000001e-05
2026-05-03,-6.551797499496843e-05
2026-05-04,0.00021065616397991394
2026-05-05,-0.00039678140739121746
2026-05-06,-0.00029410135065157533
2026-05-07,-0.00011464133665904225
2026-05-08,0.00024887427607817736
2026-05-09,-2.293e-05
2026-05-10,-1.558347607225151e-05
2026-05-11,-0.0003709502645242935
2026-05-12,-3.5025502869427174e-05
2026-05-13,0.00014126517504067668
2026-05-14,-7.595335477892932e-05
2026-05-15,0.00045558424876300497
2026-05-16,-2.364e-05
2026-05-17,-3.1512526378608e-05
2026-05-18,-0.00019800374243859133
2026-05-19,-0.00011113741086388597
2026-05-20,-0.0002849929457538951
2026-05-21,-0.00031673927745705057
2026-05-22,0.0004418443036185615
2026-05-23,-1.979e-05
2026-05-24,-6.468235061390109e-05
2026-05-25,0.0001380698286203673
2026-05-26,0.00010779049743086287
2026-05-27,-0.0013562846135874462
2026-05-28,-0.00039794402285892434
2026-05-29,8.320359791463296e-05
2026-05-30,-1.973e-05
2026-05-31,-3.3019831212930195e-05
2026-06-01,-0.0001254968010390885
2026-06-02,-3.9476427495557406e-05
2026-06-03,-0.00017230039623706265
2026-06-04,6.746432772961497e-05
2026-06-05,-0.000478644199800444
2026-06-06,-2.822e-05
2026-06-07,1.0094775118955042e-05
2026-06-08,-0.00010023692702340798
2026-06-09,-0.00023738255557769427
2026-06-10,-0.00018240124881773942
2026-06-11,0.00024517117226231463
2026-06-12,-0.00017033565875594397
2026-06-13,-1.436e-05
2026-06-14,0.00017413041271288697
2026-06-15,0.000194685463407278
2026-06-16,-4.0834581836545485e-05
2026-06-17,1.534132732348956e-05
2026-06-18,-9.809569771421091e-05
2026-06-19,-0.00015489080335609928
2026-06-20,0.0
2026-06-21,-1.9546113357138603e-05
2026-06-22,-3.764552928051353e-05
2026-06-23,-0.0004432857928371932
2026-06-24,-1.3171871289595078e-05
2026-06-25,-3.222105023636231e-05
2026-06-26,-0.0001577716574446545
2026-06-27,-1.852e-05
2026-06-28,6.276868836358601e-06
2026-06-29,-0.00034628281551995794
2026-06-30,0.00021735246206965075
2026-07-01,-0.00011414535223270203
2026-07-02,-0.00013304302276148351
2026-07-03,0.00012857883067226935
2026-07-04,0.0
2026-07-05,4.2430907363246576e-05
2026-07-06,0.00020359568052897388
2026-07-07,-0.000167430277447599
2026-07-08,-0.00018567002553853502
2026-07-09,-0.0003233814928596419
2026-07-10,8.146359327994404e-05
2026-07-11,-3.596e-05
2026-07-12,-2.836146105784988e-05
2026-07-13,-0.0002431627543959339
2026-07-14,-6.408602548452054e-05
2026-07-15,0.00011029025838063174
2026-07-16,-4.7469384785334064e-05
2026-07-17,-0.00022938727925575885
2026-07-18,0.0
2026-07-19,4.1071438019193426e-05
2026-07-20,0.0002194088466789971
2026-07-21,0.00035746015659640146
2026-07-22,-9.97176451063088e-05
2026-07-23,0.00029729453501432064
2026-07-24,5.45590012041592e-05
2026-07-25,0.0
2026-07-26,-7.224640895700132e-05
2026-07-27,0.00033750091200641886
2026-07-28,-0.0003320492810821705
2026-07-29,-0.0007201347217367445
2026-07-30,-0.0003222265390263842
2026-07-31,9.812573804386089e-05
2026-08-01,-2.5019999999999998e-05
2026-08-02,0.00011517753828990282
2026-08-03,-0.00030275425635580607
2026-08-04,0.0004208873638620352
2026-08-05,-0.00011108408208609177
2026-08-06,-2.38395139859204e-06
2026-08-07,5.857214139175096e-06
2026-08-08,-1.253e-05
2026-08-09,1.3880773330600965e-05
2026-08-10,-5.093360932666966e-05
2026-08-11,8.393344512652636e-05
2026-08-12,0.0001451315992218904
2026-08-13,1.1894695337404646e-05
2026-08-14,-0.00011876254108857195
2026-08-15,-1.5089999999999998e-05
2026-08-16,1.0117142457758184e-05
2026-08-17,0.00011491041511652547
2026-08-18,-3.6007881345674125e-05
2026-08-19,-0.0003113390744694926
2026-08-20,-0.00021819561425448527
2026-08-21,0.00031325874573870073
2026-08-22,-1.915e-05
2026-08-23,2.912058622899226e-05
2026-08-24,-8.337443874978077e-05
